Index,Peak indices,P Peak Time,Q Peak Time,R Peak Time,S Peak Time,T Peak Time,P_ml2_Ampli,Q_ml2_Ampli,R_ml2_Ampli,S_ml2_Ampli,T_ml2_Ampli,P_v5_Ampli,Q_v5_Ampli,R_v5_Ampli,S_v5_Ampli,T_v5_Ampli,diff_T_S,diff_R_P,diff_R_next_R,diff_RQ_SR,diff_T_Q,diff_T_P,diff_T_R,label
100_1,77,0.0,172.22222224341883,213.8888889152137,255.55555558700857,569.44444451453,0.0,-35.7237370976692,89.64969811633466,-29.032371762340627,5.95230461394159,0.0,-21.006910474802567,39.42493289771622,-16.940684595805227,6.26644432112214,313.8888889275214,213.8888889152137,813.8888889890599,83.33333334358974,397.22222227111115,569.44444451453,355.55555559931634,N
100_2,370,875.0000001076924,986.1111112324788,1027.7777779042735,1072.2222223541885,1366.666666834872,8.891229842335425,-44.827566488032005,114.15463248959824,-40.602792401507145,6.847508182188001,5.041654084030361,-18.811208852608704,48.23883241359319,-19.853335917567072,8.849020096254831,294.4444444806836,152.77777779658118,811.1111112109404,86.11111112170965,380.55555560239327,491.66666672717975,338.88888893059857,N
100_3,662,1708.33333354359,1800.0000002215386,1838.888889115214,1883.3333335651284,2161.1111113770944,9.084532602280818,-39.19300851435354,100.62294702618324,-31.929321229900765,5.816243594186727,5.574953908542816,-24.61176240274869,64.82081375283907,-23.58126049612336,8.943751758536724,277.77777781196596,130.55555557162393,788.8888889859829,83.33333334358986,361.1111111555558,452.7777778335044,322.22222226188046,N
100_4,946,2488.888889195214,2588.888889207521,2627.777778101197,2675.000000329231,2947.2222225849578,8.397494959078793,-44.86331732889768,98.87223636852173,-30.557084762245317,5.064766113253974,5.424794086539445,-29.26636936911222,62.344677337632895,-21.149028788348076,7.342127698388437,272.2222222557266,138.8888889059831,791.6666667641025,86.11111112171011,358.3333333774367,458.333333389744,319.4444444837609,N
100_5,1231,3250.0000004000003,3380.5555559716245,3419.4444448652994,3463.888889315214,3744.4444449052994,6.848598300021045,-31.86937820462979,89.13937453495242,-29.88372792447428,6.009913549497959,4.237418031082467,-14.68410014381993,37.47605859708848,-15.281821233952682,7.461227285114889,280.55555559008553,169.44444446529906,788.8888889859827,83.3333333435894,363.88888893367493,494.4444445052991,325.00000004000003,N
100_6,1515,4066.66666716718,4169.444444957608,4208.333333851282,4250.000000523078,4538.888889447522,8.479904849449156,-36.18038416415271,95.2066882638449,-30.602659822685688,6.596150684153225,3.3516014548111457,-15.62303358090783,38.96451753520456,-16.475022615322338,8.533759511677923,288.8888889244445,141.66666668410198,816.6666667671798,80.55555556547006,369.44444448991453,472.22222228034207,330.5555555962401,N
100_7,1809,4855.555556153163,4986.1111117247865,5025.000000618462,5069.444445068377,5366.66666732718,8.194448536375647,-40.76491092758948,104.195986213807,-33.621628205121205,5.7666164082012,3.7533030770803073,-24.49311123205598,64.204014811062,-25.59150276745552,9.512102864550489,297.2222222588034,169.44444446529906,652.7777778581203,83.33333334359031,380.5555556023937,511.1111111740174,341.66666670871837,N
100_8,2044,5516.666667345642,5638.888889582907,5677.777778476582,5722.222222926496,6025.000000741539,9.391586176663504,-39.68921047191993,99.56514762529687,-32.45783142012238,3.761331264328347,0.1079534585211856,-23.036325237517403,55.31696817840707,-20.809733972795676,5.406533570947806,302.777777815043,161.11111113094012,994.4444445668378,83.3333333435894,386.1111111586324,508.33333339589717,347.22222226495705,A
100_9,2402,6538.888889693676,6633.333334149745,6672.22222304342,6716.666667493334,7041.666667533335,6.7072753235151845,-43.38261452904909,109.20678642136475,-38.440654879161926,8.019392173494381,3.1465878242243264,-17.30225186727023,51.51733675733858,-20.586891598194647,7.7414275666725905,325.0000000400014,133.33333334974395,844.4444445483759,83.3333333435894,408.3333333835908,502.7777778396594,369.44444448991544,N
100_10,2706,7372.222223129574,7475.000000920001,7516.666667591796,7561.11111204171,7858.333334300513,7.052988355914775,-39.33456326955621,100.91722715945096,-34.35365784822544,5.415653180951944,5.173098505787609,-20.79394336536992,45.71325776517665,-20.914081075366976,5.841698086517808,297.2222222588034,144.44444446222224,811.1111112109402,86.11111112170875,383.33333338051216,486.1111111709397,341.66666670871746,N
100_11,2998,8194.444445452993,8286.11111213094,8327.777778802736,8369.444445474532,8658.333334398976,9.016624527086735,-36.00344351606535,96.19736037716676,-30.79365556087769,5.101344086006242,5.721251216163719,-22.866659722736184,49.14447254862026,-22.71653016401248,7.158400909824172,288.8888889244445,133.33333334974304,788.8888889859845,83.33333334359122,372.2222222680357,463.8888889459831,330.5555555962401,N
100_12,3282,8955.555556657779,9077.777778895044,9116.66666778872,9161.111112238634,9450.000001163078,8.745010263324032,-35.23200353551199,89.89671688367144,-28.89302899188267,5.789433873265282,3.912103027620561,-20.01094951533284,47.82013949384625,-17.2943011388389,5.413534201501668,288.8888889244445,161.11111113094194,772.222222317263,83.3333333435894,372.2222222680339,494.44444450529954,333.3333333743576,N
100_13,3560,9722.222223418805,9847.22222343419,9888.888890105984,9930.55555677778,10227.777779036582,8.257102648200785,-33.855594439311226,90.02216699490836,-30.193965280724285,6.313420093691883,4.147269628523642,-14.08665446127836,29.229471888406422,-14.674900149714114,6.92454396753571,297.2222222588025,166.6666666871788,838.8888889921363,83.3333333435894,380.5555556023919,505.5555556177769,338.8888889305981,N
100_14,3862,10583.333334635898,10688.888890204444,10727.77777909812,10772.222223548037,11063.8888902506,5.991610491947501,-39.66093393010169,101.95186117090569,-34.86889421661984,5.180773263331873,3.528945483357415,-23.74662128176323,60.9005674242526,-23.60614307704675,8.531645454151557,291.6666667025638,144.44444446222224,855.555555660856,83.33333334359304,375.00000004615686,480.5555556147028,336.1111111524806,N
100_15,4170,11427.777779184276,11544.4444458653,11583.333334758976,11627.777779208893,11919.444445911457,7.432933776085657,-46.16998971649864,102.35326032415908,-33.35018808561841,4.682080419290149,5.031022518828374,-27.48736314322669,60.90601200985783,-23.68335699273541,8.736401064847724,291.6666667025638,155.5555555746996,822.2222223234185,83.33333334359304,375.00000004615686,491.6666667271802,336.1111111524806,N
100_16,4466,12266.66666817641,12363.8888904106,12405.555557082394,12447.22222375419,12744.444446012993,7.237946637774784,-36.21097757922445,93.06937911942984,-32.18791344390262,5.820847912447694,2.975208029905621,-16.858481589326786,35.705640119163895,-16.852154534560512,7.058397327459563,297.2222222588025,138.88888890598355,827.7777778796572,83.3333333435894,380.5555556023919,477.77777783658166,338.8888889305981,N
100_17,4764,13063.888890496752,13194.444446068375,13233.333334962052,13277.777779411968,13583.333335005129,8.319932849016471,-38.60714862654672,99.82978556268915,-33.7128121895227,5.845339304781633,3.940610814236252,-18.31877429434388,47.63950470053026,-17.837217578106088,7.578473102205572,305.55555559316053,169.44444446529997,822.2222223234203,83.33333334359304,388.8888889367536,519.4444445083773,350.0000000430773,N
100_18,5060,13888.888890598291,14016.666668391796,14055.555557285472,14100.000001735389,14375.000001769233,8.685944465295082,-38.0346767552199,100.8072133779319,-34.06902416868368,5.459019486488353,4.435473442304,-23.47231912840707,62.21142511574924,-25.33181492185569,8.86073618747795,275.0000000338441,166.66666668718062,794.4444445422196,83.33333334359304,358.33333337743716,486.1111111709415,319.4444444837609,N
100_19,5346,14722.222224034187,14811.11111293402,14850.000001827691,14894.444446277608,15202.77777964889,7.844320804503146,-35.44279266589478,90.79363482742832,-28.67252531372191,5.178072491800464,5.211743320468789,-21.80324028124584,53.28464456075699,-20.35164411601858,5.071357992470476,308.3333333712817,127.77777779350436,797.2222223203444,83.33333334358758,391.6666667148693,480.5555556147028,352.77777782119847,N
100_20,5633,15505.555557463931,15605.55555747624,15647.222224148036,15691.66666859795,15975.000001966157,9.897249244773384,-52.85232843822996,122.28084835796466,-44.98995424599101,6.850096157106294,5.731251875660158,-25.37285656896266,63.70136676380501,-25.734175134373995,8.179832278680871,283.3333333682058,141.6666666841047,791.666666764102,86.11111112171056,369.44444448991635,469.44444450222545,327.77777781812074,N
100_21,5918,16302.777779784275,16400.000002018463,16438.888890912138,16483.333335362055,16766.666668730257,7.544952385721839,-35.76901077239869,97.39032001037428,-32.763735067012654,5.5720148743472935,4.209243577366857,-18.487180383859773,50.13287174172996,-20.68213938436765,9.297883745055096,283.33333336820215,136.1111111278624,822.2222223234203,83.33333334359122,366.66666671179337,463.8888889459813,327.7777778181189,N
100_22,6214,17083.3333354359,17222.222224341884,17261.111113235558,17305.55555768547,17619.444446612993,6.647608341504734,-42.48551631967693,108.6120371254749,-35.13523956917671,5.411298847164426,3.176230555988588,-26.18631581350861,67.2539286497543,-27.043234373380848,7.537585259430791,313.8888889275222,177.77777779965982,869.4444445514528,83.33333334358758,397.2222222711098,536.1111111770952,358.33333337743534,N
100_23,6527,17980.555557768548,18091.666668893336,18130.55555778701,18172.222224458805,18472.22222449573,6.826274415387251,-41.2716345925227,100.49830753664776,-32.3934090782104,6.573828883183269,4.656552704525963,-20.780209988785344,51.93212924300057,-23.61757345411148,6.881344831564972,300.0000000369255,150.00000001846274,822.2222223234203,80.55555556546824,380.5555556023937,491.666666727182,341.6666667087193,N
100_24,6823,18786.11111342325,18913.888891216757,18952.77778011043,18997.222224560344,19283.33333570667,7.46185888953923,-40.18457416003045,98.49464391680092,-32.9655401158622,6.753758840739876,4.918646467874718,-18.26626282375472,43.79013762073927,-17.178680762137375,7.3686255282895825,286.11111114632513,166.66666668718244,786.1111112078615,83.33333334358758,369.4444444899127,497.2222222834207,330.55555559623826,N
100_25,7106,19563.88889129676,19697.2222246465,19738.888891318293,19780.555557990087,20066.66666913641,7.5188790723748,-38.77140445561536,101.57909957898832,-33.52593328450902,5.305249701070352,4.01167738122054,-21.01859302236152,46.17378003014536,-21.0569008624673,8.577474275010443,286.11111114632513,175.0000000215332,791.6666667641075,83.33333334358758,369.4444444899127,502.7777778396521,327.7777778181189,N
100_26,7391,20394.44444695453,20488.8888914106,20530.5555580824,20577.77778031043,20647.22222476342,10.03785375955433,-57.83286470346901,129.10256948969914,-47.83053027215901,6.246850320403095,6.4797800783770905,-32.247278868850685,80.76611568291567,-32.96583166817911,3.90950329207692,69.44444445299087,136.11111112786966,775.0000000953805,88.88888889982991,158.33333335282077,252.77777780888937,116.6666666810197,N
100_27,7670,21172.22222482804,21266.666669284103,21305.55555817778,21347.22222484957,21630.55555821778,7.493561302476518,-38.36581166207297,95.57598943771058,-30.841877174293863,4.36235977415679,5.509680292113121,-18.976800614157348,41.56456244466991,-18.99382176489436,7.514419827176086,283.3333333682094,133.3333333497394,786.1111112078579,80.55555556546824,363.88888893367766,458.333333389739,325.0000000399996,N
100_28,7953,21933.33333603282,22050.00000271385,22091.66666938564,22133.33333605744,22430.55555831624,6.803524329390704,-37.245153549086346,99.49847664652144,-32.17235265023765,6.05682249629858,5.933118079687316,-17.458207921634635,36.88518819060861,-17.15283172833463,7.752836331378796,297.22222225879887,158.33333335281714,811.1111112109465,83.33333334359122,380.5555556023901,497.22222228341707,338.88888893059993,N
100_29,8245,22766.66666946872,22863.888891702907,22902.777780596585,22950.000002824618,23241.66666952718,8.227513069044624,-49.42589048821627,112.7376509849875,-39.42040928207236,5.178590195692239,6.249381282673405,-27.297247142878906,72.45767012120979,-27.46676493745315,8.6460299327208,291.6666667025638,136.11111112786602,816.666666767178,86.11111112171056,377.7777778242744,475.0000000584623,338.8888889305963,N
100_30,8539,23572.22222512342,23680.55555847009,23719.444447363763,23761.11111403556,24050.00000296,8.343227624860937,-38.59814971408731,100.28978129666044,-32.28233591883136,5.5687753911375655,6.053057481881828,-22.34015394314211,55.56137570835464,-23.99104449231884,9.148581317912402,288.88888892444083,147.2222222403434,827.7777778796626,80.55555556547188,369.4444444899127,477.77777783658166,330.55555559623826,N
100_31,8837,24405.55555855932,24508.333336349748,24547.222225243426,24588.888891915216,24905.555558620857,7.638192920966056,-38.61103520963192,96.49717220116146,-31.477505082466124,4.754343223698992,4.737919877833115,-18.3765356378286,42.669338389354095,-18.040479501159385,6.109972612221613,316.66666670564155,141.6666666841047,844.444444548375,80.55555556546824,397.2222222711098,500.0000000615364,358.3333333774317,N
100_32,9141,25219.44444754838,25352.777780898123,25391.6666697918,25433.33333646359,25722.222225388035,7.450469336537631,-39.61300034275887,105.29450523245367,-36.07315565759916,7.601188352215537,3.8111384619762463,-16.270031799734824,44.87048335260975,-18.89244312501932,8.885484639065163,288.8888889244445,172.22222224342113,805.555555654697,80.55555556546824,369.4444444899127,502.77777783965576,330.5555555962346,N
100_33,9431,26066.666669874878,26155.555558774704,26197.222225446498,26241.66666989641,26530.55555882086,10.165920637788329,-51.35749106411068,130.2823905896535,-46.13366412112202,6.027021541457255,6.114205018752294,-33.83849729957827,82.0983681848807,-33.23961327598902,7.9339412877207165,288.8888889244481,130.55555557162006,775.0000000953805,86.11111112170693,375.00000004615504,463.8888889459813,333.33333337436125,N
100_34,9710,26836.11111441402,26933.333336648207,26972.22222554188,27016.6666699918,27305.555558916243,9.12018805618367,-37.45227914180147,96.08197646255222,-30.428365186203543,3.749602388288145,5.781598710333348,-22.91301971425933,53.527820391122965,-20.428266701697897,6.385039921035277,288.8888889244445,136.11111112785875,800.0000000984655,83.33333334359122,372.2222222680357,469.44444450222363,333.3333333743649,N
100_35,9998,27602.77778117505,27733.33333674667,27772.222225640344,27813.88889231214,28102.777781236586,9.940848640677938,-39.51837480285678,94.04744571130928,-29.58952418328673,5.942086620816377,4.71608826462598,-17.59410594965674,35.704246890323525,-15.715264713559526,7.583545124484269,288.8888889244445,169.4444444652945,788.8888889859845,80.55555556547188,369.44444448991635,500.0000000615364,330.5555555962419,N
100_36,10282,28416.666670164104,28522.22222573265,28561.11111462633,28605.55555907624,28916.666670225644,9.381269188589863,-41.93092920965436,105.63969211886128,-34.48549890710113,7.390827310534648,5.007993746438546,-17.15024675728559,42.87147121629431,-16.9233316492754,6.409452063398024,311.11111114940286,144.44444446222406,858.3333334389754,83.33333334359122,394.4444444929941,500.00000006154005,355.555555599316,N
100_37,10591,29269.44444804684,29377.777781393503,29419.444448065304,29463.888892515217,29758.3333369959,6.8377559489726725,-50.17850558793472,113.2997453280192,-37.458965561172114,4.400140162855447,4.947795813374169,-31.34204998813444,64.44679488295925,-26.842409913044712,8.263522741454613,294.44444448068316,150.00000001846274,841.6666667702557,86.1111111217142,380.55555560239736,488.88888894905904,338.8888889305963,N
100_38,10894,30130.555559263936,30222.222225941885,30261.11111483556,30302.777781507357,30611.11111487864,8.022756373021139,-44.24783231750073,109.33350320236336,-37.61493044282981,4.531944716617171,4.665340298384892,-23.71857965018104,62.272109214906415,-26.03292324098805,7.172782984482197,308.3333333712835,130.5555555716237,825.0000001015396,80.55555556547188,388.8888889367554,480.55555561470464,350.00000004308095,N
100_39,11191,30913.88889269368,31047.22222604342,31086.1111149371,31130.55555938701,31419.444448311457,8.23654326303985,-35.66392583337067,95.73968979583904,-31.28796776599834,6.983169285440062,3.4825271062911924,-14.726530647982829,39.20503132167827,-15.288175637059965,8.062190325025949,288.8888889244481,172.2222222434175,802.7777778765812,83.33333334358758,372.2222222680357,505.5555556177751,333.3333333743576,N
100_40,11480,31755.555559463934,31850.00000392,31888.88889281368,31930.555559485478,32233.333337300515,8.49285654558809,-40.03529871631586,104.00986082784956,-33.60523660988551,6.347097379074831,4.20096660126271,-16.925331525673094,45.482390797821104,-19.43846738179197,8.229080675835608,302.77777781503755,133.33333334974668,836.111111214017,80.55555556547915,383.3333333805167,477.77777783658166,344.444444486835,N
100_41,11781,32583.333337343596,32683.3333373559,32725.000004027697,32769.44444847761,33038.88889295522,9.055473110510096,-46.23121961951313,116.89139299905123,-39.33269332091465,5.895132532660414,6.768573729892212,-29.16092822462741,66.16712647648643,-29.004074388590656,9.072153739214537,269.44444447760907,141.66666668410107,791.6666667641002,86.11111112171056,355.55555559931963,455.5555556116233,313.8888889275222,N
100_42,12066,33338.88889299214,33477.77778189813,33516.6666707918,33561.111115241714,33838.88889305368,7.173423412783329,-33.379268830360225,89.1683477348253,-28.152620618353016,4.957994734028214,2.6627526744861942,-19.9731325786891,46.841041293012815,-19.94308432004136,6.835911107317068,277.77777781196346,177.77777779965982,788.8888889859809,83.33333334358758,361.11111115555104,500.00000006154005,322.22222226188023,N
100_43,12350,34158.33333753744,34263.888893105985,34305.55555977778,34350.000004227695,34630.55555981778,8.446487668894349,-48.34752616248269,110.89793438100116,-38.93550919030624,6.472080063223155,5.300346355190958,-18.64259575825002,45.63308863032868,-20.503716436571537,7.989432369533787,280.55555559008644,147.22222224033612,819.4444445453046,86.11111112171056,366.666666711797,472.22222228033934,325.0000000400032,N
100_44,12645,34944.4444487453,35083.33333765129,35125.00000432308,35166.66667099488,35469.44444880992,7.958542899355725,-38.65106696753755,102.69905249903556,-34.68252322900916,5.981671849366024,3.805359029580064,-19.586675398623527,42.86367342866895,-20.286956507663884,8.719315375309817,302.7777778150412,180.5555555777828,844.444444548375,83.33333334358758,386.1111111586288,525.0000000646178,344.444444486835,N
100_45,12949,35833.33333774359,35930.55555997778,35969.44444887146,36013.888893321375,36319.44444891453,7.766355714236439,-48.15459605407544,114.94128175453748,-37.57171444567222,5.994115415002382,5.01768103064683,-28.411994751453157,72.22657894874976,-27.574326869557733,8.927210756212924,305.5555555931569,136.11111112786602,880.5555556639301,83.33333334359486,388.88888893675175,486.1111111709397,350.00000004307367,N
100_46,13266,36688.88889340445,36808.3333378636,36850.00000453539,36894.444448985305,37205.55556013471,7.339977118214402,-54.006421917555485,105.38681980692644,-34.10700050715131,4.642779907126869,4.677386414448966,-31.06769345863496,58.40069184265037,-23.660620540808036,6.378076126519691,311.11111114940286,161.11111113093648,822.2222223234203,86.11111112170329,397.22222227110615,516.6666667302561,355.55555559931963,N
100_47,13562,37505.555560171626,37633.33333796513,37672.22222685881,37716.666671308725,38005.555560233166,9.955484896658032,-33.94713400066832,93.39825800883868,-30.10105000499332,5.929074417040078,4.426972593720075,-14.371044124658848,36.36397181966306,-16.03236698051259,7.411140258919381,288.88888892444083,166.66666668718244,777.7777778735035,83.33333334359486,372.2222222680357,500.00000006154005,333.3333333743576,N
100_48,13842,38313.888893604446,38408.33333806052,38450.00000473231,38488.88889362599,38783.33333810667,9.895420427256129,-38.75202755931838,103.82155290709386,-37.250336611846485,5.434174790398118,7.7222400358974035,-21.54849917440859,48.06117108508816,-23.42449639694446,7.517353658867901,294.4444444806795,136.11111112786602,802.7777778765812,80.55555556547188,375.0000000461514,469.44444450222363,333.3333333743576,N
100_49,14131,39125.00000481539,39211.1111159371,39252.77778260889,39294.44444928069,39611.11111598633,8.263902117931412,-40.26307962626859,102.23170198087152,-33.821278070983006,4.2786476860345655,5.213845920302759,-25.488119529294924,55.38949144529427,-24.89166621048028,4.611246569381788,316.66666670564155,127.77777779350436,811.1111112109502,83.33333334358758,400.00000004922913,486.1111111709397,358.33333337743534,N
100_50,14423,39936.11111602633,40025.00000492616,40063.88889381984,40108.33333826975,40402.77778275043,8.347399577950991,-35.414960420518696,89.35246506012075,-29.170545624427227,5.409050278252106,4.650216856274784,-18.172393219674547,38.400891793042526,-16.448447886152152,6.397009835098489,294.4444444806795,127.77777779351163,797.2222223203353,83.33333334359486,377.7777778242744,466.66666672410065,338.888888930589,N
100_51,14710,40719.44444945608,40822.2222272465,40861.11111614018,40905.55556059009,41202.77778284889,8.454262334693379,-36.85742561010442,95.75416889968272,-32.7883679117259,6.569598587419045,5.084523409607344,-16.06430881259543,41.54495244283351,-16.273790269996766,7.303345255042985,297.2222222588025,141.66666668409744,836.1111112140134,83.33333334358758,380.5555556023901,483.33333339280944,341.666666708712,N
100_52,15011,41550.00000511385,41658.333338460514,41697.22222735419,41741.66667180411,42036.11111628479,6.397753261769444,-41.69987472152671,102.37345543177486,-33.93555659693913,5.507606883803552,3.737277265751173,-24.08406208792205,58.628674627357945,-23.46737757427186,8.056443371821018,294.4444444806795,147.2222222403434,830.5555556577747,83.33333334359486,377.7777778242744,486.1111111709397,338.8888889305963,N
100_53,15310,42388.88889410599,42488.888894118296,42527.77778301197,42572.22222746188,42872.22222749881,8.10167002742439,-41.82050445174233,99.99452149881886,-32.15840399930374,4.550156119288927,5.3387557488183255,-23.3750728410852,55.877992880601006,-23.181762576337576,7.351319978722479,300.0000000369255,138.88888890597445,825.0000001015433,83.33333334358758,383.33333338051307,483.3333333928167,344.44444448684226,N
100_54,15607,43216.66667198565,43313.88889421983,43352.77778311351,43394.4444497853,43702.77778315658,8.568384868514496,-37.360148809633046,94.27912290412073,-31.352014459767776,5.84382127444175,3.5752278081400544,-17.54041876570754,39.851524666328565,-17.318178193415676,6.742882730380925,308.33333337128715,136.11111112785875,811.1111112109429,80.5555555654646,388.88888893675175,486.1111111709324,350.00000004307367,N
100_55,15899,43997.22222763727,44125.000005430775,44163.88889432445,44208.33333877436,44497.22222769881,8.225175210421721,-36.23165706514748,94.90385745767205,-30.474427881100244,7.083355305936225,3.9331711767728814,-15.860669062615232,41.59046849763107,-16.121955296115814,8.069957884079537,288.8888889244481,166.66666668718244,788.8888889859809,83.33333334358758,372.2222222680357,500.00000006154005,333.3333333743576,N
100_56,16183,44825.00000551693,44911.11111663864,44952.777783310434,44994.44444998223,45283.33333890667,9.462705541532504,-50.221279097228354,124.8023566957466,-47.32769632814912,5.164232598428142,6.955347007605302,-26.44288509747648,67.87851904355888,-31.88745503299002,9.951213213989188,288.88888892444083,127.77777779350436,780.5555556516192,83.33333334358758,372.2222222680284,458.333333389739,330.5555555962346,N
100_57,16464,45605.55556116855,45694.44445006838,45733.33333896205,45777.77778341197,45855.55556119932,9.818733803089334,-49.99239190616461,122.52039797445464,-44.03956579960705,4.178915482858753,7.209619896626176,-27.892257750335983,73.88154112852465,-28.814624861041477,3.3953874943659788,77.7777777873489,127.77777779350436,808.3333334328272,83.33333334358758,161.11111113093648,250.00000003077002,122.22222223726567,N
100_58,16755,46383.33333904206,46502.7777835012,46541.66667239488,46583.333339066674,46888.88889465983,8.184190359386957,-37.2999833381613,93.78284059639962,-31.044202499578805,5.112016711050125,4.679118922062987,-15.93432762922384,37.75368077862847,-16.04532545139357,6.979018757527587,305.5555555931569,158.33333335282077,841.666666770252,80.55555556547188,386.1111111586288,505.55555561777146,347.2222222649507,N
100_59,17058,47205.55556136547,47344.44445027146,47383.33333916513,47425.000005836926,47722.22222809573,7.209437570750521,-36.421242808116965,97.82686189587744,-32.89758155186129,6.605313480562128,3.127143991979258,-16.172709843949004,39.51802620728858,-18.372613175725327,7.772239312388576,297.2222222588025,177.77777779965982,833.3333334358977,80.5555555654646,377.7777778242671,516.6666667302561,338.8888889305963,N
100_60,17358,48080.55556147317,48177.77778370736,48216.66667260103,48261.11111705095,48558.33333930975,9.013287851326956,-41.43209799271445,101.9106526276406,-32.017545345634254,4.2156697297103065,5.116277334784128,-24.815462868687323,59.74570815586299,-24.022661822775603,7.973266819314553,297.2222222588025,136.11111112785875,830.555555657782,83.33333334358758,380.5555556023901,477.777777836578,341.6666667087193,N
100_61,17657,48905.55556157471,49002.777783808895,49047.22222825881,49088.888894930606,49161.11111716172,8.507552266481515,-55.08526836885141,131.3872151979774,-49.15611068545381,5.002050094361376,5.309005455058872,-34.53928140328638,73.18706286269901,-33.31757550710201,4.435759498048233,72.22222223111748,141.6666666841047,805.555555654697,86.11111112171056,158.33333335282805,255.555555587016,113.88888890291128,N
100_62,17947,49677.77778389197,49813.88889501984,49852.77778391351,49894.4444505853,50172.22222839727,8.176382963225382,-33.75144309681175,91.7255722048918,-30.32786309019049,7.786053080612543,2.778179854424555,-12.369629464160043,31.72064656782599,-16.049651272732465,8.427417087628342,277.77777781197074,175.00000002153683,777.7777778735035,80.5555555654646,358.33333337743534,494.44444450530136,319.4444444837645,N
100_63,18227,50486.11111732479,50588.88889511522,50630.55556178701,50675.00000623693,50952.77778404889,7.146435535003641,-46.04234681987336,103.8350425684045,-34.10949427100177,7.468319990683192,4.98415878936414,-21.62907674774243,44.454745821404174,-20.036701309410244,9.300671478294104,277.77777781196346,144.44444446222042,797.2222223203498,86.11111112171056,363.888888933674,466.66666672410065,322.22222226188023,N
100_64,18514,51283.333339645134,51386.11111743556,51427.77778410736,51472.22222855727,51752.77778414736,8.194559136769252,-41.08964906365147,97.59047173365838,-31.873254209311103,5.471484149695547,4.723242782984409,-27.49017932081056,53.26649934738274,-23.72986904175284,8.639249858389821,280.55555559008644,144.4444444622277,780.5555556516192,86.11111112171056,366.666666711797,469.44444450222363,325.00000003999594,N
100_65,18795,52066.66667307488,52166.66667308719,52208.33333975898,52252.7777842089,52538.888895355216,7.3908239512789,-44.820125252454886,101.3378556018986,-34.649072674740125,5.559323492854924,5.555246525738884,-22.18895947000044,51.032600070002765,-21.604681650617252,6.927714844710361,286.11111114631785,141.6666666841047,791.6666667641039,86.11111112171056,372.2222222680284,472.22222228033934,330.5555555962346,N
100_66,19080,52836.111117614026,52961.11111762941,53000.000006523085,53044.444450973,53352.77778434428,8.546517066473521,-36.968314183135234,97.17668992112984,-33.51655340906157,6.725725228422961,4.761168357447312,-15.3862921121157,40.87838127274504,-15.668165882390497,7.188363554352382,308.3333333712799,163.88888890905946,855.5555556608524,83.33333334359486,391.66666671487474,516.6666667302561,352.77777782119665,N
100_67,19388,53702.77778438736,53816.66667329026,53855.55556218394,53900.000006633854,54205.55556222701,6.493734449443522,-44.85216970503017,108.5354969905612,-36.22415135204147,5.941543026336418,4.180457789157068,-26.26923641476446,63.47354086026672,-26.259281324441908,6.962028213965644,305.5555555931569,152.7777777965748,847.2222223265053,83.33333334359486,388.88888893675175,502.7777778396485,350.00000004307367,N
100_68,19693,54563.88889560445,54661.11111783864,54702.77778451044,54747.222228960345,54819.44445119146,6.868558122029127,-48.16641539862998,114.3405481412681,-40.722747735690064,5.754387652917539,4.118557966094787,-29.05036699968493,65.79833859358511,-28.71771556105435,4.047469208230324,72.22222223111748,138.88888890599628,822.222222323413,86.11111112170329,158.33333335282077,255.555555587016,116.6666666810197,N
100_69,19989,55383.33334014975,55488.88889571829,55525.000006833856,55569.444451283765,55852.777784651975,8.096971790132487,-34.32955436196276,88.56906018873754,-28.504469819819697,5.249633021115058,5.147061046279274,-14.617135035491254,40.83511774087619,-15.517106372126728,7.00733886115623,283.3333333682094,141.6666666841047,783.3333334297422,80.55555556547188,363.8888889336813,469.44444450222363,327.7777778181189,N
100_70,20271,56141.666673576416,56269.44445136992,56308.3333402636,56352.77778471351,56622.22222919112,8.654466415445038,-35.22628659791174,93.96836375128966,-31.1687516435668,6.1046513760344325,4.069293199334447,-15.23237688331595,39.82051779829502,-15.886090631449068,7.981552895989337,269.44444447760907,166.66666668718244,786.1111112078579,83.33333334358758,352.77777782119665,480.555555614701,313.88888892751856,N
100_71,20554,56922.22222922804,57055.555562577785,57094.444451471456,57138.88889592137,57419.44445151146,7.701009631970638,-37.12927880744776,100.10722115276724,-32.86829327721546,5.343147312976752,3.5394510707864693,-22.245688479838154,56.72704548871855,-24.48028322146409,7.603621975293065,280.55555559008644,172.22222224341385,786.1111112078652,83.33333334358758,363.888888933674,497.22222228341707,325.0000000400032,N
100_72,20837,57725.00000710462,57844.444451563766,57880.55556267932,57927.77778490735,58213.88889605368,7.928404749242521,-38.06749524167416,94.794414258865,-30.759718846930863,5.131677341856813,4.93410302161198,-20.52650204748813,57.415782178953776,-21.253073409485665,7.481055068995924,286.11111114632513,155.5555555746978,816.6666667671816,83.33333334358758,369.4444444899127,488.8888889490554,333.3333333743576,N
100_73,21131,58555.5555627624,58658.333340552825,58697.2222294465,58738.8888961183,59041.66667393334,7.637395707734733,-37.454411160589885,95.32742544871294,-31.28466983994712,6.443594864849384,3.6627510702059647,-16.41282181038722,39.56782043917864,-16.0456312415843,7.074055000314782,302.7777778150412,141.6666666841047,811.1111112109429,80.55555556547188,383.33333338051307,486.1111111709397,344.444444486835,N
100_74,21423,59372.22222952958,59469.44445176377,59508.333340657446,59550.00000732924,59861.11111847864,7.7345281045353556,-41.09186973294601,107.52935158125484,-39.09072796814031,6.330516921450391,4.431539130648095,-16.042353475904196,45.67007220488023,-19.91909907806896,8.330585387462136,311.11111114940286,136.11111112786602,850.0000001046137,80.55555556547188,391.66666671487474,488.8888889490627,352.77777782119665,N
100_75,21729,60213.88889629984,60319.44445186838,60358.33334076206,60402.77778521197,60705.55556302702,6.969829603367792,-38.92846888740448,99.51887896004192,-32.09620781771524,5.542768385256857,3.765506098804375,-23.28209366210508,55.85747273002328,-23.805047253318588,8.105336386801596,302.77777781504847,144.44444446222042,833.3333334358977,83.33333334358758,386.11111115863605,491.6666667271784,347.22222226495796,N
100_76,22029,61013.8888963983,61152.77778530428,61191.66667419796,61236.11111864787,61538.88889646292,6.32617663714143,-40.297098899674246,98.09063156173258,-32.5985720102784,4.626882605143511,4.022411634460314,-23.006893569846333,54.756268132662825,-21.541857115096175,6.9115941828577405,302.77777781505574,177.77777779965982,811.1111112109356,83.33333334358758,386.1111111586433,525.000000064625,347.22222226496524,N
100_77,22321,61850.00000761232,61963.88889651522,62002.77778540889,62044.44445208069,62322.22222989266,8.50189254101588,-33.74357287318222,89.4926629811503,-29.868814838445207,6.155559578329763,5.028922817696548,-13.518557509794098,32.25869016323569,-15.117558308259651,8.067822478006274,277.77777781197074,152.7777777965748,783.3333334297495,80.5555555654646,358.33333337743534,472.22222228033934,319.4444444837645,N
100_78,22603,62633.33334104206,62747.22222994496,62786.11111883864,62830.55556328855,63102.77778554429,7.720243227594492,-36.0454811942784,94.95739740894928,-31.47379622331125,7.069932834244743,4.84593593650125,-14.719278613037844,36.717453289071024,-16.821397700730994,8.353042138852649,272.2222222557393,152.7777777965821,772.2222223172648,83.33333334359486,355.5555555993342,469.4444445022309,316.6666667056488,N
100_79,22881,63425.00000780616,63516.66667448411,63558.33334115591,63602.77778560582,63872.22223008343,9.3695686838255,-37.39602278435213,98.00142021890426,-31.40892256922647,5.212523365636998,4.588968324960486,-24.9336047764268,54.30246889908403,-23.635659060351298,8.050125410296848,269.44444447761634,133.33333334975032,786.1111112078579,86.11111112170329,355.55555559931963,447.22222227727616,313.88888892752584,N
100_80,23164,64172.22223012035,64305.555563470094,64344.444452363765,64386.111119035566,64672.22223018189,7.656705774188271,-34.53235826529312,90.39440345252694,-29.485032586746197,4.174052590231759,4.298714838517884,-18.78607302861538,43.9455891213926,-20.477081002798474,6.3559642851588505,286.11111114632513,172.22222224341385,802.7777778765812,80.55555556547188,366.666666711797,500.00000006154005,327.7777778181262,N
100_81,23453,64969.44445244069,65108.33334134668,65147.222230240346,65191.66667469026,65500.00000806154,6.216842511431199,-39.39433947108943,98.77585745077316,-33.71115588565121,6.515423422942583,4.451819964158294,-16.773918338378667,40.85725978967839,-15.62979131173667,6.676386857028835,308.3333333712799,177.77777779965254,841.6666667702593,83.3333333435803,391.6666667148602,530.5555556208492,352.77777782119665,N
100_82,23756,65836.11111921402,65950.00000811693,65988.8888970106,66033.33334146051,66341.66667483181,6.860382284880639,-40.04930920311685,102.81023668895972,-34.25732910821594,5.9861553593005965,4.244796244597849,-19.04077585346577,48.37437670708545,-19.76503380729127,7.857123675075876,308.33333337129443,152.7777777965821,825.0000001015433,83.33333334358758,391.666666714882,505.555555617786,352.7777778212039,N
100_83,24053,66677.77778598428,66772.22223044035,66813.88889711215,66855.55556378394,67161.1111193771,8.153358458005098,-42.9362894756152,108.13755718514552,-36.76761265768881,4.934476872430226,4.80057910012986,-26.844014519839668,57.26501286806671,-26.257978425503985,8.03026924377374,305.5555555931642,136.1111111278733,811.1111112109356,83.33333334358758,388.88888893675175,483.33333339283126,347.22222226495796,N
100_84,24345,67455.55556385778,67586.1111194294,67625.00000832308,67669.444452773,67955.55556391932,7.430360100639534,-35.48307485123731,90.672028977217,-28.389122245891635,5.213169295876873,3.002881919504024,-18.893008609994624,44.4039313247457,-16.39766161616589,5.997000146636725,286.11111114632513,169.44444446530542,777.7777778735035,83.33333334358758,369.4444444899127,500.00000006154005,330.5555555962346,N
100_85,24625,68244.44445284377,68363.88889730291,68402.77778619659,68447.2222306465,68738.88889734907,8.297090675534218,-35.14191251425215,94.30230604064016,-30.67202229701424,6.682863905187061,5.088385344859387,-14.12788958490192,38.24496666924428,-16.027208588838548,7.396576457029235,291.6666667025711,158.3333333528135,800.0000000984583,83.33333334358758,375.0000000461587,494.4444445052941,336.1111111524806,N
100_86,24913,69072.22223072343,69161.11111962325,69202.77778629505,69247.22223074497,69525.00000855693,10.006470971448383,-56.19296860348615,137.35314327301165,-49.72044274579584,5.759601872745572,5.592463332752512,-33.809878434563366,82.14217036045831,-34.234427186843426,8.884593344197187,277.77777781196346,130.55555557161279,788.8888889859809,86.11111112171784,363.8888889336813,452.7777778335003,322.2222222618875,N
100_87,25197,69855.55556415317,69952.77778638736,69991.66667528103,70036.11111973095,70322.22223087728,7.691748626291251,-38.26092615548792,97.59914877017476,-31.608798067655457,5.61997301938342,5.086087891168122,-23.961220096833785,58.63621687226624,-23.03191640089087,7.547623605469711,286.11111114632513,136.11111112785875,800.0000000984728,83.33333334358758,369.4444444899127,466.6666667241079,330.5555555962492,N
100_88,25485,70658.33334202976,70752.77778648582,70791.6666753795,70833.3333420513,71125.00000875385,7.052485785048291,-38.839879235819886,96.6721053437141,-30.96924885416329,6.0029701920736445,3.148034708922397,-16.146656156009968,37.372308848070645,-17.159036936428546,7.418717775384113,291.66666670255654,133.33333334974304,816.6666667671816,80.55555556547188,372.2222222680284,466.6666667240934,333.33333337435033,N
100_89,25779,71466.66667546258,71569.444453253,71608.33334214668,71652.77778659659,71955.55556441162,7.130366015600054,-46.50589648606877,114.73416137874236,-42.681032174760816,5.387159687972645,3.623976195839174,-16.995093815022972,51.5728276258428,-20.66979884814478,8.382508683041072,302.7777778150339,141.6666666841047,858.3333334389608,83.33333334358758,386.1111111586215,488.8888889490481,347.2222222649434,N
100_90,26088,72313.88889778907,72427.77778669198,72466.66667558564,72511.11112003557,72819.44445340685,6.819165378169568,-54.82052296390286,110.96368069264209,-35.437595645479874,5.324404372581216,4.983512805974554,-29.86670031753579,67.2232232588261,-26.62185621608604,6.9225310834531815,308.3333333712799,152.77777779656753,830.5555556577892,83.33333334358758,391.66666671486746,505.55555561777146,352.7777778212039,N
100_91,26387,73161.11112011556,73255.55556457164,73297.22223124343,73338.88889791523,73647.2222312865,7.456091789173722,-38.96574522949164,97.00290221457468,-31.86497840435913,5.423828871967407,4.275793720957053,-21.197869578363285,40.36417716328939,-20.081196835849973,6.409806686263812,308.3333333712799,136.1111111278733,786.1111112078652,83.33333334358758,391.66666671486746,486.11111117094697,350.00000004307367,N
100_92,26670,73955.55556465778,74044.44445355762,74083.3333424513,74127.7777869012,74425.00000916001,10.632477780296396,-35.33558202549485,93.84524087072948,-29.991807167670824,7.994402862277269,4.873438570642649,-14.679542022036182,38.34420286259351,-15.583375263831082,6.7710068848151455,297.2222222588025,127.77777779351163,783.3333334297349,83.33333334358758,380.5555556023901,469.44444450222363,341.666666708712,N
100_93,26952,74738.88889808753,74825.00000920924,74866.66667588103,74908.33334255283,75191.66667592103,9.619210607954251,-39.949965467739055,105.14319830898266,-34.397258462412545,6.275007333334448,5.357782494518148,-23.705730498906668,49.7111686959511,-22.376785024263093,8.893299618574076,283.3333333682094,127.77777779349708,791.6666667641111,83.33333334358758,366.666666711797,452.7777778335003,325.0000000400032,N
100_94,27237,75527.77778707352,75619.44445375146,75658.33334264514,75700.00000931694,75997.22223157574,8.931402444025867,-41.89942180366517,108.03035944824416,-37.0433035794621,5.593890447783409,6.637352674168132,-23.276414139812253,59.84359887277725,-26.50071936953693,7.71697442774829,297.2222222588025,130.55555557162734,830.5555556577747,80.55555556547188,377.7777778242744,469.44444450222363,338.8888889305963,N
100_95,27536,76319.44445383761,76450.00000940924,76488.88889830292,76533.33334275283,76830.55556501163,10.277533768394918,-34.09213277649201,90.11838404355971,-28.175424760835117,4.633953851363216,4.370976131893555,-18.184538906483866,40.86701979599516,-16.665515276291703,5.346289054623057,297.2222222588025,169.44444446530542,825.0000001015287,83.33333334358758,380.5555556023901,511.1111111740174,341.666666708712,N
100_96,27833,77141.66667616104,77272.22223173265,77313.88889840445,77355.55556507625,77655.55556511317,8.099411992675977,-46.39439914310209,116.61316909274912,-45.29199373534583,7.04442928596996,3.9082463698049072,-13.57091503402614,37.687556745603736,-21.294829557544787,6.9232194231908455,300.0000000369182,172.22222224340658,830.5555556577892,83.33333334360213,383.33333338052034,513.8888889521331,341.66666670872655,N
100_97,28132,78002.77778737813,78102.77778739044,78144.44445406224,78188.88889851214,78488.88889854906,7.946146332176245,-52.993916134977546,115.84878714792882,-38.693498737756286,4.470753653225521,5.372246872776078,-30.53836482028607,62.290199751061074,-26.42160316757178,6.137298261958309,300.0000000369182,141.6666666841047,830.5555556577747,86.11111112170329,386.1111111586215,486.1111111709324,344.4444444868277,N
100_98,28431,78838.88889859215,78936.11112082633,78975.00000972001,79016.6666763918,79308.33334309437,7.670401541205276,-42.96397569252824,106.26148001455974,-36.17846649470024,4.49832350725358,4.768382429178388,-21.90325452082569,55.55932630574054,-25.652311692261154,7.888809828988662,291.6666667025711,136.11111112785875,822.222222323413,80.55555556547188,372.22222226804297,469.44444450222363,333.3333333743649,N
100_99,28727,79650.00000980309,79758.33334314976,79797.22223204342,79838.88889871522,80127.77778763967,7.250910246233207,-38.07455420087746,92.56406509820415,-30.21648553735722,5.470705425154597,3.4861128798488408,-18.30626856804894,39.40015640874104,-19.256026686500483,7.900160610346116,288.8888889244554,147.22222224033612,797.2222223203426,80.55555556545733,369.4444444899127,477.7777778365853,330.5555555962492,N
100_100,29014,80425.00000989847,80555.55556547009,80594.44445436377,80641.6666765918,80919.44445440377,7.541738248273761,-47.31721837668401,96.29374355932158,-30.07347015513372,6.040509933374826,3.9147421107463583,-17.75155225389535,39.72641055852273,-16.06215163419376,6.549415251487834,277.77777781196346,169.44444446529087,777.7777778735035,86.11111112171784,363.8888889336813,494.4444445052941,325.0000000400032,N
100_101,29294,81236.11112110941,81333.3333433436,81372.22223223727,81413.88889890906,81708.33334338975,10.215688139461363,-39.061299488685655,99.86707501552613,-31.88308935394345,5.807971734633498,4.964388897420739,-18.705031180134345,43.615783873856486,-21.406306811199983,9.207466561695377,294.4444444806868,136.11111112785875,794.4444445422268,80.55555556545733,375.0000000461441,472.22222228033934,336.1111111524806,N
100_102,29580,82036.11112120787,82125.0000101077,82166.6666767795,82211.1111212294,82491.6666768195,9.407864087248155,-52.041789160181374,124.07347521717726,-43.33427542831984,4.7964069146769015,6.655379961551957,-30.71291881117944,70.45346606076211,-29.959323137835277,7.892448936024554,280.5555555900937,130.55555557162734,813.8888889890659,86.11111112170329,366.666666711797,455.55555561163055,325.0000000400032,N
100_103,29873,82844.44445464069,82938.88889909677,82980.55556576856,83022.22223244036,83338.888899146,8.276479737634368,-45.57241962082485,112.29573872159258,-40.32558079960336,4.555744850016531,4.963204024491229,-21.25783038842514,45.14107763077326,-21.364914649788663,5.706581339065849,316.66666670564155,136.1111111278733,858.3333334389754,83.33333334358758,400.00000004922913,494.44444450530864,358.33333337743534,N
100_104,30182,83666.66667696412,83800.00001031386,83838.88889920754,83880.55556587933,84175.00001036,7.715903980104986,-38.215038723690725,100.81336526342623,-33.23307420036454,5.915419691588574,5.793298333954179,-13.818318409084808,35.497109635490965,-17.296808930069943,7.591734091926931,294.44444448067225,172.22222224342113,847.2222223264835,80.55555556547188,375.0000000461441,508.33333339588717,336.11111115246604,N
100_105,30487,84541.6666770718,84647.22223264036,84686.11112153402,84730.55556598394,85022.2222326865,7.9064845535639,-41.77297576952083,106.36035691220611,-33.93610504747362,4.372175857355896,5.055493205033951,-23.1617907465952,57.10022106386705,-24.09770088016345,7.277454556334545,291.66666670255654,144.44444446222042,811.1111112109502,83.33333334358758,375.0000000461441,480.555555614701,336.1111111524806,N
100_106,30779,85358.33334383898,85458.3333438513,85497.22223274497,85541.66667719488,85825.00001056309,6.889887505306782,-36.7381079349006,92.62250206329011,-28.509373283919658,5.581912518656326,4.160396126412365,-20.945557771864625,47.600775826801495,-18.460334775144588,6.70295459379048,283.3333333682094,138.888888905989,794.4444445422123,83.33333334358758,366.666666711797,466.6666667241079,327.7777778181189,N
100_107,31065,86125.00001060001,86252.77778839352,86291.66667728718,86333.33334395898,86611.11112177095,9.113801595199504,-36.47835120358506,96.6365866393006,-31.542592790915567,7.332092030015735,4.737696021213382,-13.93251042834265,32.8565190210767,-15.439902421371356,7.893064008329474,277.777777811978,166.66666668717517,786.1111112078652,80.55555556545733,358.33333337743534,486.11111117094697,319.4444444837718,N
100_108,31348,86908.33334402976,87038.88889960137,87077.77778849505,87122.22223294497,87397.22223297882,7.854277441215348,-38.17484924059043,100.9175245958166,-32.5449065443469,5.229817554840582,4.0054690865050055,-21.37446695556596,53.7995772897728,-22.62388587066846,7.12117894672678,275.00000003384775,169.44444446529087,797.2222223203426,83.33333334360213,358.3333333774499,488.8888889490627,319.4444444837718,N
100_109,31635,87736.11112190942,87836.11112192171,87875.00001081539,87922.22223304343,87994.44445527454,7.939818800763343,-48.45317738105563,109.6671463438927,-37.1477676153125,4.753303901287619,5.256501617326298,-25.43836231967185,64.88688326662009,-25.39994970665081,3.3298128888387915,72.22222223111021,138.88888890597445,811.1111112109502,86.11111112171784,158.33333335282805,258.3333333651244,119.44444445914996,N
100_110,31927,88508.33334422667,88647.22223313266,88686.11112202634,88730.55556647625,89022.2222331788,7.511155641195824,-48.12004028588729,109.114257335791,-38.496391484415405,6.144443340471113,3.0848466867048083,-18.888345588470752,49.02619394250991,-20.4555792244678,7.502626917550954,291.66666670255654,177.7777777996671,825.0000001015287,83.33333334358758,375.0000000461441,513.8888889521331,336.11111115246604,N
100_111,32224,89372.2222332219,89469.44445545608,89511.11112212787,89552.77778879966,89850.00001105847,7.354053659056731,-47.40815560038349,113.57854885962936,-39.288909531399874,6.027612052749092,4.100655776200797,-19.190350319353165,43.96366272244898,-20.999540483943168,8.109263621310287,297.2222222588025,138.88888890597445,847.2222223264835,83.33333334358758,380.5555556023901,477.77777783657075,338.8888889305963,N
100_112,32529,90216.66667777026,90316.66667778256,90358.33334445435,90402.77778890428,90708.33334449744,7.2455171953175235,-60.81621664075442,137.59256933947967,-49.56200380440056,4.929341641747934,4.921624018735938,-36.28978519441452,85.87148527233244,-35.80909016910593,7.205950745612707,305.5555555931642,141.66666668409016,852.777777882744,86.11111112171784,391.666666714882,491.6666667271784,350.0000000430882,N
100_113,32836,91077.77778898735,91172.22223344343,91211.1111223371,91255.55556678702,91325.00001124002,8.819604649570161,-46.8804485609611,111.22792351375612,-37.6404235572732,4.39734196420164,4.681353072011841,-24.66412602035143,59.16035311907615,-24.543896342557137,2.314825482139318,69.4444444529945,133.33333334974304,808.3333334328199,83.33333334358758,152.7777777965821,247.2222222526616,113.88888890291855,N
100_114,33127,91875.0000113077,91977.77778909812,92019.44445576992,92061.11112244173,92333.33334469744,8.927140216301892,-46.94932656632689,113.1824727166844,-38.9059673966562,7.417166999032912,5.995938124131485,-18.492882364793,42.88544050974881,-20.93068206974894,6.880030397704578,272.2222222557175,144.44444446222042,766.6666667610261,83.33333334360213,355.55555559931963,458.33333338974626,313.88888892752584,N
100_115,33403,92625.0000114,92747.22223363728,92786.11112253094,92830.55556698088,93108.33334479285,8.867932596123284,-35.55567717183904,96.53292858797371,-31.370373934296406,6.664786518572062,3.8261800668259034,-16.30514205315537,41.91769728735821,-16.717485515253756,8.085032175876727,277.77777781196346,161.11111113094375,800.0000000984728,83.33333334360213,361.1111111555656,483.3333333928458,322.22222226190206,N
100_116,33691,93455.5555670578,93544.44445595762,93586.11112262942,93630.55556707933,93908.33334489127,10.07176117945883,-51.75367730426861,126.30210029645366,-43.8841886604671,5.353084683040385,6.3436121447365945,-31.97337409230903,75.1511073067508,-32.14364330970915,7.180400052140674,277.7777778119489,130.55555557161279,802.7777778765885,86.11111112170329,363.8888889336522,452.7777778334712,322.2222222618584,N
100_117,33980,94208.33334492822,94347.2222338342,94388.888900506,94433.33334495591,94725.00001165849,7.584350504827024,-48.1852195249034,99.56084191439064,-31.98340271778626,5.035629654349778,2.486237663117897,-24.301950356726547,51.70605908052324,-22.778304425358588,5.691534970063903,291.6666667025711,180.5555555777828,816.6666667671525,86.11111112171784,377.77777782428893,516.6666667302634,336.1111111524806,N
100_118,34274,95027.77778947352,95163.88890060138,95205.55556727316,95247.22223394497,95550.00001176,8.430608305167889,-40.61683903856131,105.44145491822088,-36.145267931726735,6.408523102144724,4.337302696790268,-17.145042322920467,37.26462981374189,-18.38188112624546,7.456265296264031,302.7777778150339,177.777777799638,836.1111112140497,83.33333334358758,386.1111111586215,522.2222222864802,344.44444448684226,N
100_119,34575,95863.88890068753,96002.77778959351,96041.6666784872,96086.1111229371,96394.44445630838,7.338739751450509,-45.324532094728845,112.564381415688,-38.10932607271452,5.140755779670719,2.907196290607658,-20.863150848327532,53.42969836430603,-23.23038618485068,7.043911287361696,308.3333333712799,177.77777779968164,819.4444445452682,83.33333334358758,391.66666671486746,530.5555556208565,352.7777778211748,N
100_120,34870,96725.00001190465,96822.2222341388,96861.11112303248,96905.5555674824,97205.55556751932,8.559538366558641,-40.41723336476893,102.68607475069584,-32.60523689616346,4.834728852502087,6.009056994106005,-24.06729516819517,56.78843310402655,-23.38768085684935,8.02203952355447,300.0000000369182,136.11111112782964,827.7777778796881,83.33333334360213,383.33333338052034,480.5555556146719,344.44444448684226,N
100_121,35168,97550.00001200616,97650.00001201848,97688.88890091216,97730.55556758394,98044.44445651148,8.410494165915354,-39.42549447541565,99.8166588560188,-32.98244779279548,4.549030047376302,4.630676113774414,-17.301153036893528,39.907601411745695,-18.470730953711143,5.6586146783326665,313.8888889275404,138.88888890600356,797.2222223203134,80.55555556545733,394.4444444929977,494.4444445053232,355.55555559931963,N
100_122,35455,98338.88890099214,98447.2222343388,98486.11112323248,98530.5555676824,98813.8889010506,8.434865663276629,-35.281470269785075,96.85224559066012,-31.15383170435869,5.748125342341736,5.147731202417631,-13.00435248725067,34.10098985697636,-14.80830405951071,7.333574302752646,283.3333333681949,147.22222224033612,780.5555556516483,83.33333334360213,366.666666711797,475.00000005845504,327.7777778181189,N
100_123,35736,99133.33334553437,99227.77778999045,99266.66667888412,99311.11112333403,99580.55556781164,9.427212765527305,-39.47790843832144,105.90381708695922,-34.63825933058256,5.675727613720665,6.429077043543753,-23.12557589557368,59.86907611526839,-24.85318752580517,9.313975059607548,269.4444444776018,133.3333333497576,777.7777778734744,83.33333334358758,352.7777778211894,447.2222222772689,313.8888889275113,N
100_124,36016,99875.00001229232,100005.55556786394,100044.4444567576,100088.88890120754,100369.44445679762,8.557870527560532,-37.97215667933626,100.06686489511156,-32.49863881875044,6.371245729347296,2.9970139634419324,-21.88827430183585,53.32591437838703,-22.185598438811027,7.44731261867137,280.55555559007917,169.44444446527632,813.8888889890804,83.33333334360213,363.8888889336813,494.4444445052941,325.00000004001777,N
100_125,36309,100711.11112350631,100816.66667907489,100858.33334574668,100902.7777901966,101197.22223467728,8.00531593943367,-51.90663751152294,123.19539698880897,-44.255757851978295,6.478396739041405,5.890342529018867,-22.89670005801433,54.773555357989,-22.18592534616351,6.479657725938918,294.44444448067225,147.22222224036523,822.2222223233985,86.11111112171784,380.5555556023901,486.1111111709615,338.8888889305963,N
100_126,36605,101505.55556804856,101638.8889013983,101680.55556807008,101722.22223474189,102022.22223477882,8.42583583391253,-40.592825786203306,106.2685336496794,-36.726474640352606,6.172051322336424,4.014376964839397,-17.558371560201895,37.90472141135335,-18.750636567214016,8.683154687009898,300.00000003693276,175.00000002152228,863.8888889952359,83.33333334358758,383.33333338052034,516.6666667302634,341.6666667087411,N
100_127,36916,102366.66667926565,102505.55556817164,102544.44445706531,102588.88890151522,102877.77779043966,7.316562795867625,-44.08390257362916,108.12331711248824,-35.86305618269429,5.146925529779398,4.499155845727233,-22.31670235174678,56.7992954943395,-25.38966913624142,8.71312865584202,288.88888892444083,177.7777777996671,830.5555556577601,83.33333334358758,372.2222222680284,511.1111111740174,333.33333337435033,N
100_128,37215,103197.22223492344,103336.1111238294,103375.00001272307,103416.66667939488,103708.33334609744,7.899402416838378,-37.459168922386944,96.48781059065168,-31.134692593985623,3.705260912435026,3.583287820147776,-19.68558532478101,45.80710945437016,-20.944321368556317,5.755678567917652,291.66666670255654,177.777777799638,788.88888898601,80.55555556548643,372.22222226804297,511.1111111740029,333.3333333743649,N
100_129,37499,104000.0000128,104127.77779059352,104163.88890170908,104208.33334615898,104494.4444573053,8.534494160578586,-35.09318419036955,91.51723390036524,-28.543706493652493,5.350281631396577,4.741578309805882,-13.188174235160492,37.14388879492668,-14.00596473126875,5.509250921385048,286.11111114632513,163.88888890908856,786.1111112078361,80.55555556545733,366.66666671178245,494.44444450530864,330.5555555962201,N
100_130,37782,104800.00001289848,104911.11112402326,104950.00001291692,104994.44445736684,105280.55556851315,8.391688500164749,-37.923714404378856,100.94228511727128,-33.09060338869965,5.965379623454639,5.185382643947061,-16.771905152785877,43.78278795570128,-17.68208020366566,7.744100755684298,286.1111111463106,150.00000001843728,802.7777778766031,83.33333334358758,369.44444448989816,480.5555556146719,330.5555555962346,N
100_131,38071,105608.33334633127,105713.88890189985,105752.77779079352,105797.22223524343,106091.66667972412,9.375663339633531,-37.596613303874896,100.65571189053315,-32.76459227377525,4.118347661542348,6.766415745699762,-21.20353050642729,53.15137269715676,-22.34704098910646,6.802239512804858,294.4444444806868,144.44444446224952,791.6666667640966,83.33333334358758,377.7777778242744,483.3333333928458,338.8888889305963,N
100_132,38356,106394.44445753915,106505.55556866394,106544.44445755762,106588.88890200751,106877.77779093198,8.080957541292975,-36.373518282299,93.59337320750817,-30.650706215724792,3.858651404586791,5.721692196194644,-19.98588799530329,45.57119507132264,-17.694341677199738,6.264965343908888,288.88888892446994,150.00000001846638,819.4444445452973,83.33333334357303,372.22222226804297,483.33333339283126,333.3333333743649,N
100_133,38651,107219.4444576407,107322.22223543112,107363.88890210292,107408.33334655284,107711.11112436788,7.689368957935582,-47.86521837465754,109.36155600011024,-38.59658542496528,4.921900372539045,5.3615833452240365,-20.761852943503804,46.096308360973794,-19.79129559431825,6.54424391440582,302.7777778150339,144.44444446222042,830.5555556577601,86.11111112171784,388.88888893675175,491.6666667271784,347.22222226495796,N
100_134,38950,108016.66667996104,108155.555568867,108194.44445776068,108238.88890221062,108530.55556891316,6.146563814696204,-38.71386799385722,100.39192909538836,-32.95574367364392,6.8284324498567095,2.091214847664787,-17.133401485028024,42.82972124755708,-16.673884943609245,7.724876794395115,291.666666702542,177.777777799638,838.8888889921654,83.33333334361669,375.0000000461587,513.8888889521186,336.1111111524806,N
100_135,39252,108891.66668006872,108991.66668008103,109033.33334675284,109077.77779120277,109366.6666801272,6.821699372652189,-47.23733872711223,103.15656916613156,-33.104038102209365,3.830184370856201,4.707989371211289,-28.35378065892618,57.13516926638387,-23.53406033796196,7.529897347063808,288.8888889244263,141.66666668411926,819.4444445452827,86.11111112173239,375.0000000461587,475.0000000584696,333.33333337435033,N
100_136,39547,109716.66668017028,109813.88890240446,109852.77779129813,109897.22223574804,109966.66668020104,6.304282674704231,-40.88509118302238,95.72108650697682,-30.9825352930683,3.4671681173682174,4.248075076759029,-19.43427492925372,52.03120669771686,-21.138484841508337,2.7438090718434998,69.44444445300905,136.1111111278442,772.2222223172721,83.33333334357303,152.7777777965821,250.00000003076275,113.88888890291855,N
100_137,39825,110458.33334692822,110586.11112472172,110625.0000136154,110669.4444580653,110952.77779143352,8.373153405705969,-37.39879617651523,94.02252919669272,-30.12933620713724,5.885771683946615,4.615371131366344,-17.97502922041052,41.74441997386527,-15.700273715845348,6.73441026979395,283.3333333682094,166.66666668717517,752.7777778704476,83.33333334358758,366.666666711797,494.4444445052941,327.7777778181189,N
100_138,40096,111216.66668035489,111338.88890259217,111377.77779148585,111419.44445815762,111697.2222359696,9.76577517588426,-35.01928959481689,95.5679097297973,-31.05720482585929,5.514251787738524,5.10728146456385,-16.198044763099176,41.62670659538988,-18.170793085278305,8.485036988008211,277.777777811978,161.1111111309583,794.4444445421977,80.55555556545733,358.33333337743534,480.55555561471556,319.44444448375725,N
100_139,40382,112033.33334712208,112133.33334713436,112172.22223602804,112216.66668047797,112283.33334715285,7.634751865249973,-38.60914110205819,97.66954698038836,-31.67024782957488,3.976676006546913,5.264158081101842,-22.54668370078177,55.12556232231963,-21.289872416474275,2.492642519005624,66.6666666748788,138.8888889059599,819.4444445452973,83.33333334360213,150.00000001848093,250.00000003076275,111.11111112480285,N
100_140,40677,112836.11112499864,112952.77779167968,112991.66668057334,113036.11112502326,113333.33334728208,8.248799016813495,-43.39991457669058,96.45569027292868,-30.18142850328321,4.8776710594741655,6.275407698241591,-24.505731536444745,53.348576313897205,-19.19937182899268,6.63644966485179,297.22222225881706,155.5555555746978,813.8888889890659,83.33333334358758,380.55555560240464,497.2222222834389,341.6666667087411,N
100_141,40970,113672.22223621266,113766.66668066871,113805.5555695624,113847.2222362342,114150.00001404923,7.002617328789462,-37.744865375140776,98.56199781385035,-32.25329388593627,5.886521823681554,4.1454420272011365,-16.184668600887257,40.899190727155016,-17.568600891683985,7.276727638255867,302.7777778150339,133.33333334974304,836.1111112140352,80.55555556548643,383.33333338052034,477.77777783657075,344.4444444868277,N
100_142,41271,114500.00001409232,114600.00001410463,114641.66668077644,114686.11112522634,114977.77779192892,8.206129768281858,-55.14388170411264,120.22418584603491,-42.758560568692495,4.833104413777442,4.847411949636043,-31.762489466302043,75.56614967013425,-30.600968110104603,6.954250860392033,291.66666670258564,141.66666668411926,822.2222223233985,86.11111112170329,377.77777782428893,477.77777783659985,336.1111111524806,N
100_143,41567,115288.8889030783,115425.00001420616,115463.88890309984,115505.55556977163,115780.55556980548,7.279171607488509,-35.494368489383184,91.45885640957977,-29.24515686199172,5.061773050691078,2.249163100058624,-19.263226130867675,47.07353320284393,-20.41221979993067,7.379040524085106,275.00000003384775,175.00000002153683,783.333333429764,80.55555556547188,355.55555559931963,491.6666667271784,316.66666670564155,N
100_144,41849,116072.22223650804,116208.33334763593,116247.2222365296,116291.6666809795,116580.55556990394,8.44057159363196,-35.25181756399826,94.74957601963222,-30.96492377812042,6.511791336357702,2.043197170560118,-16.785597626934777,43.503538848125885,-15.726642852011713,6.006021996172435,288.88888892444083,175.00000002156594,744.4444445360568,83.33333334357303,372.22222226801387,508.3333333959017,333.3333333743358,N
100_145,42117,116850.00001438156,116950.00001439384,116991.66668106566,117033.33334773744,117322.2222366619,13.712094516930646,-37.365978545650016,99.2069871395534,-33.02332394071817,7.160171312722282,2.862968627147488,-19.077123059509148,42.625983297069226,-18.1573518219328,7.951016033449548,288.8888889244554,141.6666666841047,830.5555556577747,83.33333334360213,372.2222222680575,472.22222228033934,330.5555555962346,N
100_146,42416,117691.6666811518,117780.55557005164,117822.22223672344,117866.66668117334,118147.22223676344,9.08792433615525,-49.13920126488792,120.74108706638266,-41.80733896994533,5.5779748457361045,5.672474112280878,-29.51899011473458,71.89706667259937,-28.947028050831733,8.7983822886738,280.5555555900937,130.5555555716419,780.5555556516047,86.11111112170329,366.666666711797,455.5555556116451,325.0000000400032,N
100_147,42697,118472.22223680344,118563.88890348138,118602.77779237504,118647.22223682496,118961.11112575248,8.772658685816321,-52.19352101763904,123.50555831093575,-44.63126104346541,4.756076970378503,5.420824734138948,-27.744890000636524,71.83966056890691,-27.557987530380345,5.289909696890723,313.8888889275113,130.55555557159823,830.5555556578038,83.33333334358758,397.2222222710989,488.88888894903357,358.33333337743534,N
100_148,42996,119255.55557023318,119394.44445913917,119433.33334803284,119475.00001470462,119805.55557030089,7.255691378645768,-40.38316842293116,107.03105272365954,-40.74679919516169,6.353202738467374,2.886559438689376,-16.637434154078665,49.72658505912152,-20.82448593362646,5.893456343733213,330.55555559626373,177.7777777996671,863.8888889951922,80.55555556545733,411.11111116172106,550.0000000677101,372.22222226804297,N
100_149,43307,120150.0000147877,120258.33334813436,120297.22223702804,120341.66668147796,120633.33334818052,7.572754269642099,-41.2602165256988,103.35137553320864,-33.93269170608842,5.750102407397068,4.782427288376647,-24.82567076922373,63.83689606001486,-24.65354869629374,9.155566477391634,291.66666670255654,147.22222224033612,822.2222223234276,83.33333334360213,375.0000000461587,483.3333333928167,336.1111111524806,N
100_150,43603,120950.00001488616,121080.5555704578,121119.44445935146,121163.8889038014,121438.88890383522,7.959806299150903,-39.60725047769395,100.39634626911932,-33.829062962064484,4.489056560524804,2.6340855094784685,-26.097013734214933,66.91649368005773,-24.980628111858,6.875235480654768,275.00000003381865,169.44444446530542,802.777777876574,83.33333334360213,358.3333333774208,488.8888889490627,319.44444448375725,N
100_151,43892,121794.44445943454,121883.33334833436,121922.22223722804,121966.66668167796,122244.44445948993,8.94431333374676,-43.912781399780975,108.93970879420998,-37.36149897784531,5.422537403250694,5.044709253017673,-21.97121073046021,56.12549288002145,-20.48919668308608,7.070939255016933,277.77777781196346,127.77777779349708,777.7777778735181,83.33333334360213,361.1111111555656,450.0000000553846,322.2222222618875,N
100_152,44172,122550.00001508307,122658.33334842976,122700.00001510156,122741.66668177336,123013.88890402908,7.722951803422868,-36.07499359492827,92.90453910300316,-29.982502302947825,7.599804158022491,4.526744862619239,-17.43954116642672,36.92277694623154,-15.68676936343444,7.807190404575566,272.2222222557175,150.00000001848093,786.1111112078652,83.33333334360213,355.55555559931963,463.8888889460068,313.88888892752584,N
100_153,44455,123316.66668184412,123447.22223741574,123486.11112630942,123530.55557075932,123816.66668190566,7.527081201776361,-47.437743342373885,108.48095900672423,-35.88505286538946,5.472115137990854,2.759333219546485,-28.619831351519384,72.53418878909318,-27.49190717417731,7.989208480659658,286.1111111463397,169.44444446530542,800.0000000984583,83.33333334357303,369.4444444899127,500.00000006154005,330.5555555962346,N
100_154,44743,124141.66668194566,124247.2222375142,124286.11112640788,124330.5555708578,124613.888904226,7.85540218820532,-39.24037282690494,100.88578536657164,-33.00469430051432,5.293067276989947,4.871682125328246,-24.543916822412868,60.55127213528842,-23.21992188566085,8.400838269882318,283.3333333681949,144.44444446222042,797.2222223203426,83.33333334360213,366.666666711797,472.22222228033934,327.7777778181189,N
100_155,45030,124911.1111264848,125044.44445983454,125083.33334872822,125125.00001540002,125433.3333487713,7.542563679841924,-36.56823020196797,94.69349278761258,-31.276037018620684,5.709020662166197,3.49324124513106,-16.454526544281563,40.66420450848989,-16.674549660050197,6.363450375384973,308.3333333712799,172.22222224342113,813.8888889890513,80.55555556547188,388.88888893675175,522.2222222864948,350.00000004307367,N
100_156,45323,125750.00001547694,125858.3333488236,125897.22223771727,125941.6666821672,126244.44445998225,7.839616157918771,-39.63796769895107,97.92631323261156,-32.201686632184064,6.7231367398614905,4.953637617014453,-18.45133050092946,45.32149487423139,-17.105218293689607,7.9827951622030575,302.77777781504847,147.22222224033612,847.2222223264835,83.33333334360213,386.1111111586506,494.44444450530864,347.2222222649725,N
100_157,45628,126600.00001558157,126702.77779337198,126744.44446004376,126786.11112671556,127113.88890453368,6.9899244043270325,-42.2436960610636,105.1327033776084,-34.52418970294337,4.715946861997216,4.808644292076253,-29.549179574330637,67.45614889632515,-26.82007719073723,6.268797734737407,327.7777778181189,144.4444444621913,825.0000001015578,83.33333334358758,411.1111111617065,513.8888889521186,369.44444448992726,N
100_158,45925,127402.77779345814,127530.55557125164,127569.44446014531,127611.11112681712,127888.88890462909,8.60016430024796,-32.24624144466144,85.79158167382221,-27.84599518480484,5.452454529680103,3.664046756710084,-17.023210565142897,42.26215835155976,-16.484170368316434,7.574869332277669,277.77777781196346,166.66666668717517,775.0000000953878,80.55555556548643,358.3333333774499,486.11111117094697,319.4444444837718,N
100_159,46204,128186.11112688787,128305.55557134702,128344.4444602407,128388.8889046906,128658.3333491682,7.648958599751793,-41.62515676678754,94.9327960258317,-29.665345458137296,6.472535176230787,4.165458632816178,-21.32666700510853,44.38045153764397,-16.11925282544733,9.15603031252286,269.4444444776018,158.33333335282805,761.1111112047802,83.33333334357303,352.7777778211748,472.2222222803248,313.88888892749674,N
100_160,46478,128983.33334920822,129066.6666825518,129105.55557144548,129150.0000158954,129438.88890481985,9.590801498663348,-44.11605395522809,113.39067051359572,-39.01368787851089,5.513882636218653,6.5482091619263,-29.77611060835576,80.70575774630889,-28.86010665655478,8.424426425318867,288.88888892444083,122.22222223726567,780.5555556516192,83.33333334360213,372.22222226804297,455.55555561163055,333.3333333743649,N
100_161,46759,129750.00001596924,129850.00001598155,129886.1111270971,129930.55557154704,130211.1111271371,7.944193228570149,-33.5426546729124,84.87087257488685,-27.426571459663865,5.29785617137998,4.255751998108551,-21.66981078816767,56.31102907562807,-19.60636877646478,7.371694377077534,280.5555555900646,136.11111112785875,772.2222223172575,80.55555556548643,361.11111115555104,461.11111116786196,325.0000000400032,N
100_162,47037,130497.22223828344,130619.4444605207,130658.33334941436,130700.00001608615,131002.77779390122,7.848359532157422,-38.00986059130391,97.40042962732352,-32.912901013398965,7.079351628015762,4.500046767656643,-17.403088617106736,46.99608883484924,-18.13100214875001,7.332120225506136,302.777777815063,161.11111113091465,825.0000001015578,80.55555556545733,383.33333338052034,505.55555561777146,344.4444444868568,N
100_163,47334,131336.11112727557,131444.44446062224,131483.33334951592,131527.77779396583,131833.333349559,6.649206019996544,-40.6483852426973,100.80654927293855,-35.04042795244203,5.719893636595433,4.0055757373399885,-21.744467318410685,55.66912454739981,-20.095803654518168,7.22860749471461,305.5555555931642,147.22222224035067,827.7777778796444,83.33333334358758,388.88888893675175,497.22222228342434,350.00000004307367,N
100_164,47632,132169.44446071147,132266.66668294565,132311.11112739556,132355.55557184547,132427.7777940766,8.680889635321462,-57.95128882172817,125.5495071665226,-45.9518895243236,5.299271631143234,5.391386589256762,-37.61098051013821,81.61244645512454,-33.375154230721186,3.701075084682005,72.22222223112476,141.66666668409016,797.2222223203571,88.888888899819,161.11111113094375,258.3333333651244,116.66666668103426,N
100_165,47919,132977.7777941443,133069.44446082224,133108.33334971592,133152.77779416583,133444.4444608684,7.716157274665486,-45.81632516424731,111.42854888775504,-39.19259663630392,4.466261175444832,5.682723427216093,-27.059089608518946,68.62631024707218,-24.880741281408067,6.990548455509058,291.6666667025711,130.55555557162734,786.1111112078652,83.33333334358758,375.0000000461587,466.6666667241079,336.1111111524806,N
100_166,48202,133722.22223868035,133855.5555720301,133894.44446092378,133938.8889053737,134233.33334985437,7.315474137263728,-36.36765679543916,93.9503380014514,-29.75141327346885,5.0062654245648455,2.851257172016864,-16.879769718904384,44.58643455726978,-15.54045270591592,6.540543700304667,294.44444448067225,172.22222224343568,788.8888889859663,83.33333334358758,377.77777782425983,511.1111111740174,338.88888893058174,N
100_167,48486,134536.11112766943,134644.44446101607,134683.33334990975,134725.00001658156,134994.44446105917,8.983116491401404,-40.72239806482948,94.78966382820786,-29.83164097491885,5.545411765963017,5.352864798468272,-21.629979625743356,49.54576887863284,-19.520213691437824,7.965389506353786,269.44444447761634,147.22222224032157,777.7777778735035,80.55555556548643,350.0000000431028,458.33333338974626,311.1111111494247,N
100_168,48766,135316.66668332103,135419.44446111147,135461.11112778325,135505.55557223316,135766.66668337642,7.413403082565612,-38.82595625411558,98.704852529607,-32.449080219166966,5.324269537955942,5.219454395953896,-27.83023162043685,61.88805731476003,-23.323567211709527,8.227428021846565,261.1111111432547,144.44444446222042,761.1111112048093,86.11111112168874,347.2222222649434,450.0000000553846,305.5555555931642,N
100_169,49040,136083.33335008207,136183.33335009438,136222.22223898806,136263.88890565984,136544.44446124992,7.792007028862971,-36.249240657523785,96.17742785384786,-31.70948236495468,6.05425640761406,5.542359042809614,-22.77126202439064,56.981648445059065,-20.821237836530187,7.967037894527843,280.55555559007917,138.888888905989,786.1111112078361,80.55555556545733,361.1111111555365,461.1111111678474,322.2222222618584,N
100_170,49323,136838.88890573062,136969.44446130225,137008.3333501959,137050.0000168677,137352.77779468274,7.515147139560395,-39.55631271638629,104.07726351098668,-36.70473796225997,5.032139254490186,2.8209697870822508,-15.809070829942796,48.58055020946982,-19.98970471591309,5.839033596567647,302.7777778150339,169.44444446527632,819.4444445453119,80.55555556545733,383.33333338049124,513.8888889521186,344.44444448684226,N
100_171,49618,137683.333350279,137788.88890584753,137827.7777947412,137872.22223919112,138183.33335034052,6.84552650959631,-42.24614555996994,105.70728624977949,-35.55626884301683,6.053608802294053,5.29032638809929,-23.66436416945699,61.15274732465227,-23.43523704875488,8.478024511630935,311.1111111493956,144.44444446222042,847.222222326498,83.33333334358758,394.44444449298317,500.0000000615255,355.5555555993051,N
100_172,49923,138533.33335038362,138636.11112817403,138675.0000170677,138719.44446151762,139036.11112822327,6.575527761388714,-41.965698378626826,103.97188461062755,-34.138384481201115,4.414818669029708,3.6653198566952394,-24.841381441445822,60.87872620759887,-22.745890610893586,5.509019422925693,316.6666667056561,141.66666668409016,808.3333334328199,83.33333334358758,400.0000000492437,502.77777783965576,361.1111111555656,N
100_173,50214,139333.33335048208,139444.44446160685,139483.33335050053,139525.00001717234,139819.444461653,8.931514359909174,-41.05590922962816,102.20349381837492,-34.318184047574654,5.2405983602641735,5.795873253340347,-21.063730264680743,51.7368316484834,-20.05096003171989,7.011331381060328,294.44444448067225,150.00000001845183,769.4444445391418,80.55555556548643,375.0000000461587,486.1111111709324,336.1111111524806,N
100_174,50491,140100.0000172431,140213.888906146,140252.77779503967,140294.44446171148,140577.7777950797,8.484259504565928,-32.67821553246074,91.38953524131824,-29.639557538934145,6.108821304045345,4.315215318914542,-13.076064870333372,37.5490369036511,-14.83497871754338,7.972953152603175,283.3333333682094,152.7777777965821,777.7777778735035,80.55555556548643,363.88888893369585,477.77777783659985,325.00000004001777,N
100_175,50771,140886.11112845095,140991.6666840195,141030.55557291317,141075.00001736308,141369.44446184378,9.186574875523796,-38.93289531334016,101.60857724443372,-32.69547679760938,5.033211283812794,5.888145224784743,-23.779122709511952,61.83024404580266,-22.449981753559616,7.515151988089037,294.44444448070135,144.44444446222042,791.6666667640966,83.33333334358758,377.77777782428893,483.33333339283126,338.88888893061085,N
100_176,51056,141647.22223965573,141783.3333507836,141822.22223967727,141863.88890634908,142150.0000174954,7.783276590207556,-35.844954520533065,94.676700262821,-30.721471874342605,5.2673325282747285,2.2079062281507698,-22.787876070491173,56.68751933510515,-21.9892502437248,6.854456507148154,286.1111111463106,175.00000002153683,786.1111112078652,80.55555556548643,366.666666711797,502.77777783965576,327.7777778181189,N
100_177,51339,142438.88890641986,142566.66668421336,142608.33335088514,142652.77779533505,142944.44446203762,7.322242010167959,-45.22025594086858,101.85464969836528,-34.702903404322434,5.7672955134611374,4.207914792172531,-21.616450232715074,46.364994937165015,-17.900863202349058,7.3281095883328655,291.6666667025711,169.44444446527632,797.2222223203571,86.11111112168874,377.77777782425983,505.5555556177569,336.1111111524806,N
100_178,51626,143236.1111287402,143363.88890653368,143405.5555732055,143450.0000176554,143741.66668435797,7.602602111700062,-42.29891503573948,102.16586747302972,-34.174493845027385,7.070877204003609,5.046683825030409,-20.775253604073853,45.43968150069546,-16.01817351893196,8.024573485931818,291.6666667025711,169.44444446530542,819.4444445452827,86.11111112171784,377.77777782428893,505.555555617786,336.1111111524806,N
100_179,51921,144052.77779550737,144186.1111288571,144225.00001775078,144269.4444622007,144569.44446223762,7.281075947271741,-40.68801915735388,103.468827673177,-32.42709952849096,4.722053437996368,3.054726973126221,-24.16584321482457,64.00621871616484,-24.020698927638207,7.4197451930971425,300.00000003690366,172.22222224340658,819.4444445453119,83.33333334361669,383.33333338052034,516.6666667302488,344.44444448684226,N
100_180,52216,144863.88890671832,145002.77779562428,145044.4444622961,145086.11112896787,145388.88890678293,6.472485178807607,-40.165427699794094,98.62040430054964,-32.56899441529599,5.285412359644775,1.5019459231343892,-26.804545281902172,57.93639672594376,-23.05614209370558,7.582986140388588,302.777777815063,180.55555557776825,805.5555556546897,83.33333334358758,386.1111111586506,525.0000000646105,344.44444448684226,N
100_181,52506,145675.00001792924,145811.1111290571,145850.00001795078,145891.6666846226,146180.55557354703,7.489745326721081,-34.4526043730214,90.4564436377498,-29.85399149113114,5.099572748761204,2.959427228454325,-15.540457078147352,38.92075500090533,-15.833108270682796,6.620761635068922,288.88888892441173,175.00000002153683,772.2222223172721,80.55555556551553,369.44444448992726,505.555555617786,330.5555555962492,N
100_182,52784,146483.33335136206,146583.33335137437,146622.22224026805,146663.88890693986,146938.8889069737,7.935851996507063,-34.30633280393855,92.75175538182904,-30.23404240992477,6.546008967161588,4.593060469309674,-14.655595806534071,40.46073999836719,-16.17116171375291,8.550421368840263,275.00000003384775,138.888888905989,775.0000000953733,80.55555556548643,355.5555555993342,455.5555556116451,316.6666667056561,N
100_183,53063,147247.22224034497,147358.33335146977,147397.22224036342,147441.66668481336,147719.4444626253,8.994481345991293,-35.25484327900705,95.83539803957424,-31.57028054518069,4.617116283490083,6.75349655587684,-22.029950893461223,56.25813032716985,-21.86727783844748,7.358833285935376,277.7777778119489,150.00000001845183,772.2222223172721,83.33333334358758,361.1111111555365,472.22222228033934,322.2222222618875,N
100_184,53341,148025.00001821847,148130.55557378702,148169.4444626807,148211.1111293525,148505.55557383318,8.068607098846797,-35.0172034503702,89.26259957204074,-28.793096731707617,4.15210428945413,5.439473958019745,-20.2571905443918,50.00449494703486,-20.688813078384545,5.605256387495287,294.44444448067225,144.44444446222042,805.5555556547188,80.55555556548643,375.0000000461587,480.555555614701,336.1111111524806,N
100_185,53631,148797.22224053575,148936.11112944174,148975.0000183354,149019.44446278532,149319.44446282223,5.934763632711884,-40.10471420074951,98.13439118616267,-33.05353767708336,6.371388458891841,2.5613419280203256,-18.443291572497746,46.0336610049069,-16.532371960974046,6.201350297324934,300.00000003690366,177.7777777996671,811.1111112109211,83.33333334358758,383.33333338049124,522.2222222864802,344.44444448681315,N
100_186,53923,149638.888907306,149744.44446287456,149786.11112954633,149827.77779621814,150138.88890736754,6.557898526748262,-40.091620075103165,100.51445228468742,-32.93947864499452,6.404592797950516,3.790146056273662,-20.26638091901904,47.21153930620309,-19.27523067171708,6.921790643726312,311.1111111493956,147.22222224032157,822.222222323413,83.33333334358758,394.44444449298317,500.0000000615255,352.7777778212039,N
100_187,54219,150430.5555740701,150569.4444629761,150608.33335186975,150652.7777963197,150938.888907466,7.435791381137088,-39.78800639621867,101.03151999873847,-33.44199121520552,4.637371860409065,2.811818435029668,-24.00845845068061,61.87475919187578,-23.383258074692776,7.250017398667714,286.1111111463106,177.777777799638,800.0000000984874,83.33333334358758,369.44444448989816,508.33333339588717,330.5555555962492,N
100_188,54507,151230.55557416857,151369.44446307456,151408.33335196823,151452.77779641814,151522.22224087114,7.2947334948702895,-35.305696521969004,91.71648776762434,-30.754804954185605,3.892034746922742,2.278009466845432,-19.372725512679068,49.79853375788279,-17.904104616111695,2.8992996334481878,69.4444444529945,177.7777777996671,769.4444445391418,83.33333334358758,152.7777777965821,291.6666667025711,113.888888902904,N
100_189,54784,152016.66668537643,152138.8889076137,152177.77779650738,152219.44446317916,152511.11112988173,8.675740768061749,-35.479341524398684,98.72601123399664,-34.29349272861993,5.7707716091205,2.78679237518506,-13.549437922694809,42.57470368429367,-17.43904060641065,5.985175721148381,291.6666667025711,161.11111113094375,777.7777778735035,80.55555556545733,372.2222222680284,494.4444445052941,333.33333337435033,N
100_190,55064,152791.6666854718,152916.6666854872,152955.55557438088,152997.22224105266,153283.333352199,8.24527111622272,-35.37353446124961,93.9408732992564,-29.98154012125937,5.659592478211598,3.1449955937045817,-17.225106515260837,45.29227049147487,-18.33376956917918,7.522096312634632,286.1111111463397,163.888888909074,775.0000000953733,80.55555556545733,366.666666711797,491.66666672719293,327.7777778181189,N
100_191,55343,153608.333352239,153691.66668558258,153730.55557447625,153775.00001892616,154058.33335229437,8.148010958672732,-35.21121818023675,92.91668232209511,-30.25822173979133,4.272920694589906,4.692072401817058,-21.315867447472986,56.46287048287704,-20.743766790486987,6.8821963812868665,283.3333333682094,122.22222223726567,783.3333334297349,83.33333334358758,366.666666711797,450.0000000553846,327.7777778181189,N
100_192,55625,154369.44446344377,154469.44446345608,154513.888907906,154558.33335235593,154625.0000190308,8.49563122461508,-51.12143800502706,118.24538647068056,-44.50394913522843,4.409035839138655,4.535395732174431,-27.67236239555425,60.45313201741571,-24.987255282302016,3.091204521343882,66.66666667486425,144.44444446222042,786.1111112078652,88.8888888998481,155.55555557471234,255.55555558702326,111.11111112480285,N
100_193,55908,155127.77779687045,155258.33335244207,155300.00001911385,155341.66668578566,155655.5555747132,7.368037251630086,-37.3638837714594,93.28121667861048,-30.687087908443907,5.102465308013356,3.4050776924374127,-16.72585306421393,34.57745638685154,-15.316159854553485,4.914154378461864,313.88888892752584,172.22222224340658,830.5555556577747,83.33333334358758,397.2222222711134,527.7777778427408,355.5555555993342,N
100_194,56207,155950.00001919386,156088.88890809985,156130.55557477163,156175.00001922157,156250.0000192308,5.518689773208275,-48.29752473855267,107.26118859500214,-37.25266429663029,5.165525640045814,2.493101018229842,-21.621758432987136,49.28284809787331,-20.487475431102,1.7421548528399564,75.00000000922591,180.55555557776825,819.4444445453119,86.11111112171784,161.11111113094375,300.00000003693276,119.44444445916452,N
100_195,56502,156794.44446374223,156911.11113042326,156950.00001931694,156994.44446376685,157291.66668602565,8.018511795493607,-39.78093972886181,101.43083524952768,-34.47538644902996,4.46399205904792,4.633980281177979,-20.73919205434862,52.41119268574136,-20.996470860527182,6.621063725039155,297.2222222588025,155.55555557471234,783.3333334297349,83.33333334358758,380.5555556023901,497.22222228342434,341.666666708712,N
100_196,56784,157602.77779717505,157691.6666860749,157733.33335274667,157777.77779719658,158063.88890834292,8.962796488246918,-51.39095404232867,120.98822321227918,-44.23560753446242,5.838295994809861,5.833288358590043,-24.981261607957872,59.03473272460212,-22.731110737550825,6.402101121799688,286.1111111463397,130.55555557162734,752.7777778704476,86.11111112168874,372.2222222680284,461.1111111678765,330.5555555962492,N
100_197,57055,158322.22224170805,158444.4444639453,158486.11113061712,158527.7777972889,158808.33335287898,7.820504567551446,-33.27403298380302,93.51740915651574,-32.0804333980206,6.941230182752658,3.026273176094859,-13.898032907685742,32.07826581105874,-14.227081166763314,7.43956486974311,280.55555559007917,163.888888909074,772.222222317243,83.33333334358758,363.88888893366675,486.1111111709324,322.2222222618584,N
100_198,57333,159127.77779736274,159216.6666862626,159258.33335293437,159302.7777973843,159583.33335297438,9.046452348530488,-39.10663252286764,104.8674628750292,-35.02131729913819,3.9813067033731615,5.6286390391119046,-23.30880064199296,57.11053547647242,-23.693011128576803,6.653565204274221,280.55555559007917,130.55555557162734,783.333333429764,86.11111112171784,366.666666711797,455.5555556116451,325.00000004001777,N
100_199,57615,159869.4444641207,160002.77779747045,160041.66668636413,160086.11113081404,160369.44446418225,6.776570627399264,-45.513141478022575,97.33568864121996,-31.319616499418007,4.446621134573891,2.713075601552356,-23.142889553869093,51.39446142798271,-20.35089495575515,6.140622314544801,283.3333333682094,172.22222224343568,791.6666667640966,83.33333334358758,366.666666711797,500.0000000615546,327.7777778181189,N
100_200,57900,160686.11113088788,160791.66668645642,160833.33335312823,160877.77779757814,161175.00001983694,7.550721539467097,-47.05331521517272,117.32663610714744,-43.91019758243009,5.280112470998394,4.429979767944406,-19.230698655001056,49.398884416649786,-21.27785618200512,5.162496004362018,297.2222222588025,147.22222224035067,811.1111112109502,86.11111112171784,383.33333338052034,488.8888889490627,341.666666708712,N
100_201,58192,161472.22224209574,161602.77779766737,161644.44446433918,161688.8889087891,161988.888908826,6.3183376290582025,-41.28670718566657,103.33582968659935,-35.41251568505201,6.128696696562685,2.866389967179212,-17.47456789690848,37.4502473368826,-17.100534282897854,6.379055611941878,300.00000003690366,172.22222224343568,827.7777778796444,86.11111112171784,386.1111111586215,516.6666667302488,344.44444448681315,N
100_202,58490,162291.66668664105,162430.555575547,162472.22224221882,162516.66668666873,162802.77779781507,7.358404561327124,-38.89063102371704,99.34572601875998,-32.82001055878696,4.836550449097221,2.7550055218038896,-22.38452430867273,49.814237799527255,-22.002974753764374,6.246957173874636,286.1111111463397,180.55555557776825,827.7777778796735,86.11111112171784,372.2222222680575,511.1111111740174,330.5555555962492,N
100_203,58788,163147.2222423019,163258.3333534267,163300.0000200985,163344.4444645484,163641.6666868072,6.709105928456768,-37.156156529216254,94.59547049535314,-30.875340451557417,4.979972116491474,3.748240858505742,-18.809499704174826,39.96437545096862,-18.564091337362814,6.605367999921826,297.2222222588025,152.7777777965821,802.7777778765594,86.11111112171784,383.33333338052034,494.4444445052941,341.666666708712,N
100_204,59077,163958.33335351283,164063.88890908138,164102.77779797505,164144.44446464686,164438.88890912753,8.13248979535232,-34.80464982871003,91.00328392338162,-29.96355739358084,5.290903437442863,3.77601404176628,-13.37319350771722,31.463008759014905,-14.078773000188432,5.575503322966148,294.44444448067225,144.44444446222042,769.4444445391418,80.55555556548643,375.0000000461587,480.555555614701,336.1111111524806,N
100_205,59354,164738.88890916447,164833.33335362052,164872.2222425142,164916.66668696413,165188.88890921985,9.155725227479593,-34.1144199907227,93.20155186223164,-30.53748251393658,5.49263911825928,4.875637515084395,-13.622555853732331,36.691401283248354,-15.434554668096371,7.921778847801626,272.2222222557175,133.3333333497285,769.4444445391418,83.33333334361669,355.5555555993342,450.0000000553846,316.6666667056561,N
100_206,59631,165480.55557592242,165602.7777981597,165641.66668705334,165688.88890928138,165972.2222426496,7.865191879886034,-37.67292274432354,97.50916355343438,-32.18410979895948,5.112735016321133,3.9578753883909767,-21.05780095475764,55.20838411674384,-21.44128017888957,6.1030295517788735,283.3333333682094,161.11111113091465,800.0000000984874,86.11111112168874,369.44444448989816,491.66666672716383,330.5555555962492,N
100_207,59919,166294.44446491147,166402.77779825815,166441.66668715182,166486.11113160173,166775.00002052615,8.485052015459045,-39.53155860987781,89.67299088853382,-29.07339376993925,4.579993782721807,5.528007379984479,-19.434324016440144,44.4518237231272,-18.50224111014702,5.44531829088613,288.88888892441173,147.22222224035067,819.4444445452827,83.33333334358758,372.2222222679993,480.5555556146719,333.3333333743212,N
100_208,60214,167111.11113167866,167219.44446502533,167261.1111316971,167302.77779836892,167608.33335396208,8.343867683288659,-47.69760540177455,115.18629409498024,-42.50989374119393,5.693747643448173,4.48194347313055,-16.306637257459222,41.04474021054335,-20.81378965787412,5.172882533716417,305.5555555931642,150.00000001845183,836.1111112140352,83.33333334358758,388.88888893675175,497.22222228342434,347.2222222649725,N
100_209,60515,167952.7777984489,168055.55557623933,168097.22224291114,168141.66668736105,168430.5555762855,7.017293439780963,-55.20341316267836,124.704169730012,-48.07256416966868,5.337008770610435,3.748737557298635,-20.937628061118467,56.63995215756925,-24.485719433664528,7.100298075797707,288.88888892444083,144.44444446224952,838.8888889921363,86.11111112171784,375.0000000461587,477.77777783659985,333.33333337435033,N
100_210,60817,168758.3333541036,168897.2222430096,168936.11113190328,168980.5555763532,169275.00002083386,6.483373486873443,-38.79417697545398,98.36602720953758,-32.90923755517085,4.826516992133878,2.993390652390268,-21.022232706649667,54.29583312320016,-22.44794849165617,6.825486682692549,294.44444448067225,177.7777777996671,800.0000000984583,83.33333334358758,377.77777782425983,516.6666667302488,338.88888893058174,N
100_211,61105,169600.00002087388,169697.22224310806,169736.11113200174,169780.55557645165,170075.00002093232,8.383847557496907,-34.05275794836663,87.99820346994842,-28.789247723942644,4.365099493238124,3.8510990800865774,-17.385925994725497,41.52584989810052,-17.0666387158528,5.4937126058658015,294.44444448067225,136.11111112785875,794.4444445422268,83.33333334358758,377.77777782425983,475.0000000584405,338.88888893058174,N
100_212,61391,170388.88890985984,170491.6666876503,170530.55557654396,170575.00002099387,170880.55557658704,7.105360187094201,-34.11880197945524,90.85844644059964,-30.113104909980976,6.820347308999184,3.948824153985705,-12.557372419316373,32.20929612001973,-14.496991773326888,6.449788045549126,305.5555555931642,141.66666668411926,802.7777778765594,83.33333334358758,388.88888893675175,491.66666672719293,350.00000004307367,N
100_213,61680,171186.1111321802,171294.44446552685,171333.33335442052,171375.00002109233,171652.77779890428,8.81680892488837,-36.39357248674077,95.4325920863874,-32.27010177115656,5.3701965527114,5.577642186167069,-14.423206078439833,37.80332501799409,-20.109927195207423,7.383189537096078,277.7777778119489,147.22222224032157,786.1111112078652,80.55555556548643,358.33333337743534,466.6666667240788,319.44444448375725,N
100_214,61963,171988.88891005676,172080.5555767347,172119.4444656284,172163.8889100783,172433.3333545559,8.636518234295789,-45.43081871831518,105.35723570064845,-35.727045626475,5.257996812275071,6.013811991785112,-21.565656692376827,57.983833805796245,-24.917184075132557,6.289218363065057,269.44444447761634,130.55555557162734,788.8888889859954,83.33333334358758,352.7777778212039,444.4444444991532,313.88888892752584,N
100_215,62247,172777.77779904276,172869.4444657207,172908.33335461438,172950.00002128616,173258.33335465746,8.851092318797688,-39.87733259767992,102.08994798610716,-36.82019359102972,4.732306318841298,5.3890508289123416,-15.913876494983716,44.37399037291308,-19.80920900170255,5.848966376341286,308.33333337129443,130.55555557162734,833.3333334359049,80.55555556545733,388.88888893675175,480.555555614701,350.00000004307367,N
100_216,62547,173600.00002136617,173700.00002137848,173741.6666880503,173783.33335472207,174083.333354759,7.915147542610357,-43.00274794443492,109.76012179561064,-42.56108935279223,6.313834907469516,4.46581708935188,-13.634725480648504,33.71178306236745,-18.068466382087,6.942429351352695,300.00000003693276,141.66666668411926,847.2222223264689,83.33333334358758,383.33333338052034,483.33333339283126,341.666666708712,N
100_217,62852,174444.44446591454,174547.22224370498,174588.88891037676,174630.55557704857,174925.00002152924,7.506708969376093,-42.380645688009125,99.63035521111954,-32.92676483697887,5.686752424610795,4.726999261311095,-21.4738693366648,42.31150568258831,-21.53288259546312,7.694029803606755,294.44444448067225,144.44444446222042,838.8888889921363,83.33333334358758,377.77777782425983,480.555555614701,336.1111111524806,N
100_218,63154,175244.44446601302,175383.33335491898,175427.7777993689,175472.22224381883,175744.44446607455,6.4739799257900055,-57.89463194679532,129.88649781162067,-49.964327927312624,5.415057054216061,2.1360544810608437,-30.38029964290602,66.52540497970428,-29.17231808101896,8.10114210487562,272.2222222557175,183.3333333558694,788.8888889859954,88.8888888998481,361.1111111555656,500.0000000615255,316.6666667056561,N
100_219,63438,176047.22224388958,176180.55557723934,176216.6666883549,176261.1111328048,176536.11113283865,7.418282481603796,-32.574365040787924,86.07227123648242,-27.91131150620644,7.288512690341442,3.637072612472139,-11.06253534171468,32.68913460365079,-13.454608622119098,6.716922588327832,275.00000003384775,169.44444446530542,758.333333426679,80.55555556545733,355.5555555993051,488.8888889490627,319.44444448375725,N
100_220,63711,176830.55557731935,176936.1111328879,176975.00002178157,177019.44446623148,177297.22224404343,8.917465368108,-31.17193857927292,86.94405008814519,-28.671458829674894,6.704495646437012,5.12776170800363,-12.981583801009672,33.432412125934555,-13.929295827417082,7.469550802435966,277.7777778119489,144.44444446222042,797.222222320328,83.33333334358758,361.1111111555365,466.6666667240788,322.2222222618584,N
100_221,63998,177633.3333551959,177733.33335520822,177772.2222441019,177816.6666885518,177888.88891078293,8.237733269049548,-38.13936798361769,100.14505876319156,-33.17312270194508,4.215212198708839,4.563103042584469,-20.34964694113171,51.20197338517062,-21.64697706153348,2.2773487573976614,72.22222223112476,138.888888905989,805.5555556546897,83.33333334358758,155.55555557471234,255.55555558702326,116.66666668103426,N
100_222,64288,178444.44446640686,178538.88891086294,178577.7777997566,178619.4444664284,178922.22224424343,9.649984795132514,-34.763650918358906,88.96843781196888,-28.543200674050915,5.322475018252001,3.8921461968040414,-14.907956805001056,32.94108466589162,-15.757896395772534,6.380802263058072,302.7777778150339,133.3333333497285,813.8888889890804,80.55555556545733,383.33333338049124,477.77777783657075,344.44444448684226,N
100_223,64581,179252.77779983968,179352.777799852,179391.66668874567,179436.11113319558,179727.77779989815,6.361214055994616,-46.33331789095493,103.96993612853888,-35.60031513647237,7.094779385112891,3.2416190484176357,-15.416795042972607,39.20656210188415,-16.320160197326626,6.878759137635775,291.6666667025711,138.888888905989,819.4444445452536,83.33333334358758,375.0000000461587,475.0000000584696,336.1111111524806,N
100_224,64876,180038.88891104754,180169.4444666192,180211.11113329092,180252.7777999628,180552.7777999997,8.007989111116766,-38.171912410689885,98.00405172916874,-31.09790349391124,6.903950952088625,3.3110937865159014,-19.758549742744044,42.36752586529675,-20.742411709016675,7.63014542943745,300.00000003690366,172.22222224337747,827.7777778797317,83.33333334358758,383.33333338049124,513.8888889521477,341.6666667087702,N
100_225,65174,180866.6666889272,181000.00002227692,181038.88891117065,181083.33335562053,181388.8889112137,7.771250437333238,-35.15403947296261,91.19227844614228,-28.142398610919308,5.18105750652275,3.0017210365018308,-18.417038191394685,45.40791281753364,-19.44671935077519,4.030686904710404,305.5555555931642,172.22222224346478,805.5555556546606,83.33333334361669,388.88888893678086,522.2222222865093,350.00000004304457,N
100_226,65464,181711.1111334756,181805.55557793163,181844.4444668253,181886.11113349712,182175.0000224216,7.821518590996359,-34.39089177089461,88.79960423253407,-28.77984427771354,5.162982682808028,4.205367850774008,-14.75172817761872,31.895612885330287,-15.597043080769115,6.173073207938828,288.88888892446994,133.3333333496994,794.444444542256,80.55555556548643,369.44444448995637,463.88888894597767,330.5555555962783,N
100_227,65750,182480.55557801476,182600.00002247383,182638.88891136757,182680.55557803932,182963.88891140756,8.513157408069262,-33.477070714773966,92.92822569537566,-31.814092595803743,6.515414242496147,4.390573337605967,-10.953643995885246,28.04624033584449,-14.878934825406615,7.593113009528799,283.3333333682385,158.3333333528135,777.7777778734744,80.55555556548643,363.88888893372496,483.33333339280216,325.00000003998866,N
100_228,66030,183277.77780033505,183375.0000225693,183416.66668924104,183461.11113369092,183730.55557816857,7.779602407490987,-56.245016326469454,129.33682270697545,-47.25322959803012,5.244816100263869,5.912780899800321,-25.57346993021711,68.61668619960936,-31.39070523511407,8.398761112432574,269.44444447764545,138.888888905989,769.4444445391127,86.11111112163053,355.555555599276,452.77777783351485,313.88888892752584,N
100_229,66307,184058.3333559867,184147.2222448865,184186.11113378016,184230.5555782301,184513.8889115983,8.3476721057682,-37.283742688820645,98.867363956069,-31.576938838333174,4.5380275539332855,5.348834838403078,-20.252048253015086,50.77504590956616,-22.27845644146853,8.182349284905738,283.3333333682094,127.77777779346798,825.0000001015724,83.33333334358758,366.666666711797,455.555555611616,327.777777818148,N
100_230,66604,184866.6666894195,184972.22224498805,185011.11113388173,185055.55557833164,185275.00002280308,7.755738207076645,-37.82124990490363,93.50385447300944,-29.87919029266746,10.510672742668632,3.919707438401841,-16.99581467708087,38.56179392644325,-15.73824969502618,-2.27945732366432,219.44444447144633,144.44444446222042,522.2222222865093,83.33333334358758,302.7777778150339,408.33333338357625,263.88888892135583,N
100_231,66792,185413.88891170907,185488.8889117183,185533.33335616824,185575.00002284,185758.33335619592,4.65238103105562,-37.76277082631768,105.61309666420772,-36.52155339965785,4.548813058907859,2.5093437712958395,-17.037319495312346,33.04173805672813,-18.55334181460632,0.770815466023161,183.3333333559276,119.44444445916452,938.8888890043891,86.11111112168874,269.44444447761634,344.44444448684226,225.00000002767774,A
100_232,67130,186327.77780071044,186433.333356279,186472.22224517263,186516.6666896226,186802.7778007689,6.4343463000870855,-38.65759825796453,97.23200734993148,-32.17290524217582,7.185793268608906,3.362892647602498,-17.455585795896763,44.68758589381179,-19.834828105474948,8.749421930227381,286.1111111463106,144.4444444621913,844.444444548426,83.33333334358758,369.44444448989816,475.0000000584696,330.5555555962783,N
100_233,67434,187175.00002303693,187275.00002304924,187316.66668972105,187361.11113417096,187630.55557864855,6.976143487580424,-50.18424754546834,116.66068879865809,-41.5961540385356,5.310325085148932,4.641814596830942,-22.80893324043797,55.75056001209677,-27.04714790041169,8.053368067823907,269.44444447758724,141.66666668411926,816.6666667671816,86.11111112171784,355.5555555993051,455.555555611616,313.88888892749674,N
100_234,67728,187997.2222453604,188094.44446759456,188133.33335648823,188177.7778009381,188452.777800972,6.967133782099746,-44.82342512895666,100.96967836049056,-32.638524936753576,6.419798080288251,4.1031075446145415,-18.73447127319886,43.248911694204935,-18.625492412028976,7.03461837534981,275.00000003387686,136.11111112782964,775.0000000953733,83.33333334355848,358.33333337743534,455.5555556115869,319.44444448375725,N
100_235,68007,188777.777801012,188869.44446768996,188908.3333565836,188952.77780103352,189238.88891217983,7.46775829635457,-37.77490628865159,100.56513357558455,-33.926147685738655,8.332398995526756,3.7691215789563466,-15.273829129310489,41.25372540543065,-17.071580747016547,8.255589888386925,286.1111111463106,130.55555557159823,819.4444445452827,83.33333334355848,369.44444448986906,461.1111111678183,330.5555555962201,N
100_236,68302,189550.00002332925,189688.88891223524,189727.7778011289,189772.22224557883,190063.8889122814,7.094584158734645,-38.36571504770183,102.35023338004665,-34.16633948628883,5.669691923144769,3.170902004149075,-21.066107937979204,52.89459603528137,-24.030095769674,7.614504363926226,291.6666667025711,177.777777799638,811.1111112109502,83.33333334358758,375.0000000461587,513.8888889521477,336.1111111525097,N
100_237,68594,190361.1111345402,190500.00002344616,190538.88891233984,190583.33335678975,190877.77780127045,8.358827034261534,-45.76863267671891,100.82624520579148,-31.802167694013757,5.163701941262236,3.3207942584352,-24.512857306348856,53.79218758398108,-22.16244779699985,6.028241812261822,294.44444448070135,177.777777799638,811.1111112109502,83.33333334358758,377.77777782428893,516.6666667302488,338.88888893061085,N
100_238,68886,191175.00002352925,191308.33335687895,191350.0000235508,191394.4444680007,191691.6666902595,8.053963017441243,-39.23475714414594,97.00592804766876,-32.68662967936448,6.372961179451417,3.880373415546973,-18.219411915765523,36.87795163979303,-15.909091512683098,6.451993165021687,297.2222222588025,175.00000002153683,847.222222326498,86.11111112174694,383.33333338054945,516.6666667302488,341.666666708712,N
100_239,69191,192016.66669029952,192155.55557920548,192197.2222458773,192238.88891254907,192550.0000236985,7.7727198384895475,-38.60790012985672,97.84329574154415,-32.48908663774792,6.269109956070104,3.480362101760793,-18.3796623075862,35.9322996841279,-18.63621936299014,7.127130005308221,311.1111111494247,180.55555557776825,866.6666667733225,83.33333334358758,394.44444449301227,533.3333333989722,352.7777778212039,N
100_240,69503,192925.00002374465,193025.00002375693,193063.8889126506,193111.11113487865,193391.66669046876,7.809424803893056,-48.74251575940894,116.11478039811274,-40.02949772253029,6.218303642910194,5.968422449821812,-28.16309213346517,72.23384015371214,-28.20172194392045,7.571335177001739,280.55555559010827,138.8888889059599,813.8888889890804,86.11111112171784,366.6666667118261,466.6666667241079,327.777777818148,N
100_241,69796,193711.1111349525,193838.888912746,193877.7778016397,193922.2222460896,194197.22224612345,8.527188502835838,-34.0690855741372,90.06697112942042,-28.32740638038329,5.6975304688432935,4.411164257419302,-18.183561509911737,42.07811083870294,-17.324027549756995,7.117686613243915,275.00000003384775,166.66666668720427,769.4444445391418,83.33333334358758,358.33333337743534,486.1111111709615,319.44444448375725,N
100_242,70073,194483.33335726976,194608.3333572852,194647.22224617883,194691.66669062877,194963.8889128845,9.013286619032383,-34.92448729357672,93.52065445754546,-30.33863595749665,5.959752607184159,4.215751037461829,-14.513593790212518,37.055738082177726,-15.342294421494186,8.359817182922976,272.2222222557175,163.888888909074,788.8888889859663,83.33333334355848,355.555555599276,480.5555556147301,316.6666667056561,N
100_243,70357,195297.2222462588,195397.22224627112,195436.1111351648,195480.5555796147,195744.4444685361,8.189341574626747,-37.0853163244764,95.36478618894348,-30.681941095056477,6.1652563188316165,4.594192670439389,-17.52525777175139,42.44510162728093,-19.238140872399065,8.478244627511492,263.88888892138493,138.888888905989,794.4444445422268,83.33333334358758,347.2222222649725,447.22222227728344,308.33333337129443,N
100_244,70643,196055.5555796855,196191.66669081332,196230.55557970703,196275.0000241569,196561.11113530328,8.409836567278003,-36.98584951745422,96.34574647954294,-31.052803763305377,5.427083950190808,3.630894109602811,-19.015439794401946,45.113545733104544,-21.0859560092315,7.562303818631221,286.1111111463688,175.00000002153683,827.7777778796735,83.33333334358758,369.44444448995637,505.555555617786,330.5555555962492,N
100_245,70941,196911.11113534635,197019.44446869305,197058.3333575867,197102.7778020366,197413.888913186,8.549673637775612,-35.91087350037944,91.26284773861587,-28.8378084531519,4.500957044413484,3.1997781006900667,-18.24667228509934,41.52945267467676,-17.035127761479387,5.503504119820695,311.1111111493956,147.22222224035067,830.5555556577747,83.33333334355848,394.44444449295406,502.77777783965576,355.5555555993051,N
100_246,71240,197750.0000243385,197847.22224657267,197888.88891324447,197930.55557991625,198244.44446884375,6.380048906662364,-40.703662741202,100.61171655845206,-34.56328290204198,6.985377678498699,2.744376427576359,-16.51499185092254,33.68455170795534,-17.40985869662355,6.5979248730148425,313.88888892749674,138.888888905989,830.5555556577747,83.33333334358758,397.2222222710843,494.444444505265,355.555555599276,N
100_247,71539,198547.2222466588,198680.55558000857,198719.44446890225,198766.6666911303,199063.8889133891,7.942298479090911,-37.94689174726744,100.0755813830054,-33.150725859098884,6.065649852521275,2.832892397107406,-22.84222512788952,57.373217363861485,-21.455197890497026,8.006536813728587,297.2222222588025,172.22222224343568,850.0000001045992,86.11111112171784,383.33333338052034,516.6666667302779,344.44444448684226,N
100_248,71845,199391.6666912072,199530.5555801132,199569.44446900685,199613.8889134568,199900.0000246031,7.668559380822687,-41.08910775802388,103.4347720589519,-35.119462300529264,4.161797785508115,2.8930354607437168,-23.371743177568824,59.416883976303424,-23.8788522945354,7.450075686139978,286.1111111463106,177.777777799638,813.8888889891095,83.33333334358758,369.44444448989816,508.33333339588717,330.5555555962492,N
100_249,72138,200247.22224686807,200344.44446910225,200383.33335799596,200425.0000246677,200711.11113581405,10.200629489678438,-34.08158108358033,88.323174546975,-28.310970954157437,6.465451370255642,4.747825556396437,-16.387891024492156,35.15214046297874,-15.682645841714413,6.719961067338243,286.1111111463397,136.11111112788785,775.0000000953441,80.55555556545733,366.666666711797,463.88888894597767,327.7777778180898,N
100_250,72417,201013.88891362908,201119.4444691976,201158.3333580913,201200.0000247631,201483.3333581313,9.232695235730736,-33.77933289726047,92.98472484809342,-30.054648642483304,6.71710167595052,6.279987607708472,-13.15634682297286,32.791935032324005,-15.113042304729236,7.494539557985119,283.3333333681803,144.44444446222042,794.444444542256,80.55555556551553,363.88888893369585,469.4444445022091,325.00000003998866,N
100_251,72703,201822.2222470619,201913.88891373985,201952.77780263356,201994.4444693053,202286.11113600788,10.204467874411776,-44.714931347286,116.9641911160628,-41.0140377943415,5.814486851025222,5.7719530953434655,-23.274459893716674,66.12334043954847,-28.0772180444472,8.057612159051525,291.6666667025711,130.55555557165644,819.4444445452536,80.55555556545733,372.2222222680284,463.88888894597767,333.3333333743212,N
100_252,72998,202633.33335827285,202733.3333582852,202772.2222471788,202813.88891385065,203105.5555805532,8.4325769170078,-35.87929428173103,93.61354986473066,-31.02990759760462,5.78831129298465,5.21401942729536,-19.84485398092284,48.023372055536726,-21.02077529451084,8.335548803826079,291.666666702542,138.8888889059599,841.6666667702666,80.55555556545733,372.2222222679993,472.22222228033934,333.33333337437944,N
100_253,73301,203466.66669170876,203575.0000250554,203613.88891394908,203658.333358399,203958.33335843592,6.151254249495824,-37.13275720234829,94.93343340126007,-31.655918440590227,7.520585808941985,3.4477252037903545,-17.32527890224497,41.30631528408255,-15.892028363059628,6.499632170324733,300.00000003693276,147.22222224032157,861.1111112170911,83.33333334358758,383.33333338052034,491.66666672716383,344.44444448684226,N
100_254,73611,204297.22224736653,204436.1111362725,204475.00002516617,204519.44446961608,204808.33335854052,5.77290348469796,-43.23471018230998,100.22693016035272,-32.82474315613106,6.620272251045171,3.704886655741817,-20.869846805413623,47.8182398304425,-18.375529443463865,8.411932583277608,288.88888892444083,177.777777799638,833.3333334359049,83.33333334358758,372.2222222680284,511.1111111739883,333.33333337435033,N
100_255,73911,205166.666691918,205269.4444697084,205308.33335860207,205355.5555808301,205633.3333586421,7.70978854122949,-57.1516585844892,121.41474450354042,-41.69175367942131,5.870451626442117,5.418126912554089,-33.00998592221522,79.85218010538046,-30.183697292520847,8.834708064253096,277.777777811978,141.66666668406106,791.6666667640966,86.11111112171784,363.88888893369585,466.6666667240788,325.00000004001777,N
100_256,74196,205969.44446979451,206061.1111364725,206100.00002536617,206141.666692038,206430.5555809624,9.510335378322877,-37.233788503924046,95.45774989096697,-31.654454548296044,4.627018154497958,5.78638909180988,-19.434423960757137,45.62349816790015,-20.732677305491404,7.103210062293081,288.8888889243826,130.55555557165644,797.2222223203571,80.55555556551553,369.44444448989816,461.1111111678765,330.5555555962201,N
100_257,74483,206761.11113655867,206858.33335879285,206897.22224768653,206941.66669213644,207244.44446995147,7.673782713248624,-35.60856895812353,93.43814266069386,-31.0606564728056,5.954385049610552,4.066296204699343,-16.131469063901342,39.77522838438244,-15.399308109663776,7.036074191364535,302.7777778150339,136.11111112785875,788.8888889859663,83.33333334358758,386.1111111586215,483.33333339280216,347.2222222649434,N
100_258,74767,207533.3333588759,207647.2222477788,207686.1111366725,207727.7778033443,208119.4444700592,8.696015180656556,-35.751917344028804,95.78285089433774,-31.51094531670657,11.45148887719004,5.26094220226275,-16.35898870083298,40.46854810307512,-18.161839256173412,1.242201975772417,391.6666667149111,152.7777777965821,608.3333334081981,80.55555556551553,472.22222228042665,586.1111111833015,433.33333338671946,N
100_259,74986,208119.4444700592,208255.55558118704,208294.4444700807,208338.88891453063,208616.66669234255,11.45148887719004,-39.76454700165298,104.37258150901056,-32.99658147761008,4.522524624442754,1.242201975772417,-24.53138302464082,57.338864651477984,-22.741369714307528,6.990785032427633,277.7777778119198,175.00000002147863,961.111111229402,83.33333334358758,361.1111111555074,497.22222228333703,322.2222222618584,A
100_260,75332,209088.8889146229,209216.66669241645,209255.5555813101,209297.2222479819,209619.4444702438,8.4390576819785,-35.99100469658283,94.67806242307128,-31.58992702715797,3.728913321323355,3.6135771780728367,-20.760187180345586,54.408904737486544,-22.60020880320736,5.529857092034221,322.2222222618875,166.66666668720427,833.3333334359049,80.55555556545733,402.77777782734483,530.5555556209001,363.88888893369585,N
100_261,75632,209916.6666925026,210050.00002585232,210088.888914746,210130.5555814178,210433.33335923284,6.759380711509986,-34.494313844469055,93.36076544079538,-30.537570356651223,6.500920187179095,2.333021708929296,-15.08535724243425,39.50250971791224,-16.607642093585515,6.955302562122128,302.7777778150339,172.22222224340658,838.8888889921072,80.55555556548643,383.33333338052034,516.6666667302488,344.44444448684226,N
100_262,75934,210783.33335927592,210886.1111370664,210927.7778037381,210972.22224818805,211269.44447044685,8.033490110048874,-49.83876753457184,116.92623778851213,-42.02449027108921,6.091741118431511,4.050667023126562,-28.113286182510247,66.80583691882765,-26.83326611997857,9.152277363151974,297.2222222588025,144.4444444621913,830.5555556578038,86.11111112165963,383.33333338046214,486.1111111709324,341.6666667087411,N
100_263,76233,211622.22224826805,211719.44447050223,211758.3333593959,211802.77780384585,212086.11113721403,7.518800206426534,-39.96126708943579,101.655167842455,-33.29173299632259,4.539756397325311,5.420875854217968,-25.09614956588892,64.95215548667817,-24.767961955490765,8.141483292035373,283.3333333681803,136.11111112785875,783.333333429764,83.33333334361669,366.666666711797,463.88888894597767,327.7777778181189,N
100_264,76515,212372.2222483604,212502.777803932,212541.66669282567,212583.33335949745,212869.4444706438,9.063067189437891,-33.96306214335866,89.40377388320195,-27.52019051651835,5.991047655647002,3.7693436021653786,-19.95869312000225,44.230483039556816,-17.826854360879675,7.6890636857026,286.1111111463397,169.44444446527632,750.0000000923174,80.55555556545733,366.666666711797,497.22222228339524,327.7777778181189,N
100_265,76785,213163.88891512447,213252.77780402428,213291.666692918,213336.11113736787,213627.77780407044,9.175002803916346,-34.924667706568776,93.37553900144886,-29.99788694738636,7.469178452302377,5.459137326811948,-14.9171775357951,40.52897610921143,-15.015982721379029,8.66496214425127,291.6666667025711,127.77777779352618,802.7777778765303,83.33333334358758,375.0000000461587,463.88888894597767,336.1111111524515,N
100_266,77074,213916.66669299488,214055.55558190087,214094.44447079452,214138.8889152445,214433.3333597252,8.764145901625309,-39.3756076802277,102.29084247455154,-33.8044218992802,6.200147384751673,3.27779343581968,-20.5306397137748,51.85281527212048,-22.09513753135768,8.389957382951753,294.44444448070135,177.777777799638,811.1111112109793,83.33333334361669,377.77777782431804,516.666666730307,338.88888893066905,N
100_267,77366,214752.7778042089,214863.8889153337,214905.5555820055,214950.0000264554,215030.55558202087,9.043109019432515,-49.27502286888954,119.10570402479988,-41.81962270603538,4.282680602545595,6.294728831494781,-31.65483017392942,76.1325263914113,-30.95067008259785,3.2866877571543567,80.55555556545733,152.7777777966112,825.0000001015433,86.11111112171784,166.66666668717517,277.777777811978,125.00000001536682,N
100_268,77663,215555.5555820855,215694.44447099147,215730.55558210704,215775.00002655693,216066.66669325955,8.443492396349976,-33.445519259335605,88.27170540272381,-28.166359694527447,4.645404740848971,3.578089287687221,-16.78721325222973,44.328468736315415,-15.57429108814575,6.845842515593184,291.6666667026293,175.00000002153683,808.3333334327908,80.55555556545733,372.2222222680866,511.1111111740465,336.1111111525097,N
100_269,77954,216369.44447107456,216497.22224886809,216538.88891553984,216580.55558221164,216888.8889155829,7.484947799100148,-37.944179724035465,98.39579849753878,-33.08936313618148,6.529943851767274,2.9908560281000667,-17.44278903290257,38.44077290401728,-17.251714542699503,7.707880330826637,308.3333333712653,169.44444446527632,825.0000001015142,83.33333334355848,391.6666667148238,519.44444450835,350.00000004307367,N
100_270,78251,217227.77780451352,217325.00002674773,217363.88891564135,217408.3333600913,217686.11113790327,8.358898519564503,-38.83819205230097,102.76534221391832,-33.18515191122517,4.063152095403333,5.580318212296908,-23.9375487880816,63.69272619558642,-25.556190587855884,7.183123440329997,277.777777811978,136.11111112782964,800.0000000985165,83.33333334355848,361.1111111555365,458.33333338974626,322.2222222619166,N
100_271,78539,217994.44447127456,218125.0000268462,218163.88891573987,218205.55558241165,218497.22224911425,7.741835989136346,-37.44457371230004,97.11955901272104,-31.087269557862747,5.233183123007725,2.2800842322813044,-22.601343423880568,53.96981768531993,-21.908276029113026,6.781083576051103,291.6666667026002,169.44444446530542,791.6666667641257,80.55555556545733,372.2222222680575,502.77777783968486,333.33333337437944,N
100_272,78824,218788.8889158168,218916.66669361028,218955.555582504,219000.00002695387,219286.11113810015,8.430086059628868,-45.31539087896431,115.1410962029871,-41.374819046172654,5.686484004748988,3.8521478579590487,-19.587285585925542,54.87560885512586,-20.72999032379568,6.664289478147694,286.1111111462815,166.66666668720427,766.6666667609825,83.33333334358758,369.44444448986906,497.22222228336614,330.55555559616187,N
100_273,79100,219550.0000270216,219680.5555825932,219722.22224926497,219763.8889159368,220050.0000270831,7.5094871834323875,-36.2690195211071,96.10696774708404,-31.84676271598592,6.733296494285555,3.1296319869601588,-16.78999628072465,36.94425587257364,-17.154476152457363,6.6833515421908505,286.1111111462815,172.22222224337747,794.4444445422268,83.33333334361669,369.44444448989816,500.0000000614964,327.7777778181189,N
100_274,79386,220372.22224934495,220477.77780491352,220516.6666938072,220561.1111382571,220855.5555827378,8.169127058386147,-38.94241573663202,102.50236661238276,-33.46794002220626,5.301171315425617,5.443633147133802,-23.008173514409144,61.4940149206858,-25.29614235431847,8.19599779495162,294.44444448070135,144.44444446224952,841.6666667702666,83.33333334358758,377.77777782428893,483.33333339286037,338.88888893061085,N
100_275,79689,221180.5555827778,221319.4444716838,221358.33336057747,221402.77780502735,221475.00002725847,7.1625372808392855,-40.83847836738008,100.22629837170987,-32.766191862369766,4.165988743303221,4.125786069768211,-22.11409797891583,55.10530416297176,-22.611160215459336,2.426276561306872,72.22222223112476,177.7777777996671,838.8888889921363,83.33333334355848,155.55555557468324,294.44444448067225,116.66666668100515,N
100_276,79991,222055.55558288548,222158.33336067596,222197.2222495696,222241.6666940195,222547.22224961268,8.26443828088654,-35.853802110726804,93.84334786034438,-30.11422306152096,6.238485318478864,4.950684145091111,-17.240311815960286,42.4994932629392,-15.105780404492911,7.610147056533066,305.5555555931642,141.66666668411926,830.5555556577456,83.33333334355848,388.88888893672265,491.66666672719293,350.00000004307367,N
100_277,80290,222855.55558298397,222988.8889163337,223027.77780522735,223072.2222496773,223366.666694158,7.401382319195729,-37.62276163189481,98.87903570964822,-33.23901935066935,6.55348125101021,2.6512045209878505,-17.253170706167285,48.299336773060354,-18.8623885365977,7.385786691729848,294.44444448070135,172.22222224337747,813.8888889890804,83.33333334358758,377.77777782428893,511.1111111740174,338.88888893063995,N
100_278,80583,223705.55558308857,223802.77780532275,223841.66669421643,223886.11113866637,224175.0000275908,8.748625173635544,-37.95899099180245,98.23242936607863,-31.371864187427317,4.740502437505953,7.346496504916248,-22.53207067404826,58.59389185354706,-23.43777994036781,7.84051864936268,288.88888892444083,136.11111112785875,791.6666667640966,83.33333334361669,372.2222222680575,469.4444445022382,333.33333337437944,N
100_279,80868,224486.1111387402,224597.22224986495,224633.33336098053,224677.7778054305,224963.8889165768,8.992710951349485,-32.992000181227105,87.95473542442232,-28.04965381024176,4.9762359900733575,5.938021786194681,-17.762464025500357,50.32722005879992,-18.487013341217743,5.594337953827063,286.1111111463106,147.22222224032157,788.8888889859663,80.55555556554464,366.6666667118552,477.77777783659985,330.5555555962783,N
100_280,81152,225288.8889166168,225380.5555832947,225422.2222499665,225466.66669441643,225752.7778055628,8.59379395877557,-47.0003647629644,119.08066060691256,-42.36010963471328,6.059118430448036,4.667685933472105,-23.3104950386407,56.14891726335173,-22.538217497860376,7.097325775065976,286.1111111463688,133.3333333496994,797.2222223203571,86.11111112171784,372.2222222680866,463.8888889460068,330.5555555963074,N
100_281,81439,226083.333361159,226177.77780561507,226219.44447228685,226263.8889167368,226538.88891677064,9.52925983736622,-47.2152819607939,120.72373820534224,-43.31826820581863,6.34438389310051,5.343943424063934,-27.316493149907732,64.99688639598197,-26.765173834298693,8.806701799202596,275.00000003384775,136.11111112785875,808.3333334328199,86.11111112171784,361.1111111555656,455.5555556116451,319.44444448378636,N
100_282,81730,226858.3333612544,226988.888916826,227027.77780571967,227072.2222501696,227152.77780573507,8.092936626463294,-43.58966915555738,109.88121541060846,-36.87040612254276,4.006598838009196,3.636720749631538,-26.77257106193825,70.80834695547667,-27.16689912758613,2.818056976652126,80.55555556545733,169.44444446527632,833.333333435934,83.33333334361669,163.888888909074,294.44444448067225,125.00000001539593,N
100_283,82030,227711.11113913712,227822.2222502619,227861.1111391556,227905.55558360548,228211.11113919865,6.197942960241496,-38.42181927378311,95.71414210552234,-32.39486230783071,5.23446482098393,4.781318203825382,-19.00308189756745,48.01018371032754,-17.76276669240572,6.0713831906990725,305.5555555931642,150.00000001848093,847.2222223264689,83.33333334358758,388.88888893675175,500.0000000615255,350.00000004304457,N
100_284,82335,228536.11113923867,228666.6666948103,228708.33336148207,228752.777805932,229058.33336152515,7.338078271230897,-50.74234891089698,121.98733501146918,-44.45035008481769,6.67286801961251,4.2215822489346255,-22.64102915002856,57.07315634775506,-23.799776494889706,8.161368641984474,305.55555559313507,172.22222224340658,836.1111112140061,86.11111112171784,391.6666667148529,522.2222222864802,350.00000004307367,N
