Index,Peak indices,P Peak Time,Q Peak Time,R Peak Time,S Peak Time,T Peak Time,P_ml2_Ampli,Q_ml2_Ampli,R_ml2_Ampli,S_ml2_Ampli,T_ml2_Ampli,P_v5_Ampli,Q_v5_Ampli,R_v5_Ampli,S_v5_Ampli,T_v5_Ampli,diff_T_S,diff_R_P,diff_R_next_R,diff_RQ_SR,diff_T_Q,diff_T_P,diff_T_R,label
101_1,83,0.0,183.33333335589745,230.55555558393164,280.5555555900855,511.11111117401714,0.0,-43.32827976180411,109.98390397927967,-38.44590197525318,15.125909980053688,0.0,3.083638998127945,-13.40782803763037,6.700588766071478,0.6954501831805576,230.55555558393166,230.55555558393164,869.4444445514532,97.22222223418802,327.7777778181197,511.11111117401714,280.55555559008553,N
101_2,396,963.8888890075216,1055.5555556854702,1100.0000001353849,1150.0000001415383,1383.33333350359,15.590802951118745,-41.10514591777397,105.8473581413202,-37.78448841358302,11.894338218663473,4.9626531844320105,1.5479939733558108,-6.446434107667908,-1.0780541964808203,-6.923188697493474,233.3333333620517,136.1111111278633,875.0000001076919,94.44444445606814,327.77777781811983,419.4444444960684,283.3333333682051,N
101_3,711,1833.3333335589743,1930.5555557931625,1975.0000002430768,2025.0000002492309,2263.888889167521,13.86665781664309,-46.55123561497622,118.63491605096952,-42.171850528231246,13.23365886831375,1.1174571163560822,7.371053656231082,-11.175427886284224,5.189382557542852,0.7672065352266169,238.88888891829015,141.66666668410244,891.6666667764114,94.44444445606837,333.3333333743585,430.5555556085467,288.88888892444425,N
101_4,1032,2730.5555558916244,2822.2222225695728,2866.666667019488,2916.6666670256413,3175.0000003907694,14.881671586498207,-49.56804489285799,122.65516026214576,-42.34347850165531,14.427717093978268,-4.364830833792479,0.682717867110798,-8.350807362310727,6.573525279513973,-0.60206228529988,258.33333336512806,136.11111112786375,933.3333334482045,94.4444444560686,352.77777782119665,444.444444499145,308.33333337128124,N
101_5,1368,3661.11111156171,3755.555556017778,3800.0000004676926,3850.000000473847,4116.666667173334,17.965958334588304,-48.79537252531976,125.96997311425908,-45.07229316931016,11.442626736036496,1.793221448217748,7.574121301682898,-7.369464067851245,0.6922415997586171,0.921293083481197,266.66666669948654,138.88888890598264,955.5555556731638,94.44444445606905,361.1111111555556,455.55555561162373,316.6666667056411,N
101_6,1712,4611.111111678633,4708.333333912821,4755.555556140856,4802.77777836889,5072.222222846496,17.386364434624447,-43.957053793764295,113.85864519060055,-41.169404053991485,11.636723042889994,-2.129978699787192,-1.414598853178321,-6.566907562159872,4.935878846875372,-2.631939030511362,269.44444447760634,144.44444446222315,900.0000001107683,94.4444444560686,363.88888893367493,461.1111111678629,316.6666667056397,N
101_7,2036,5519.444445123761,5611.11111180171,5655.555556251625,5702.777778479659,5955.555556288547,15.31004564536992,-47.28344787195076,124.90060445533192,-45.90957577314078,11.51767827035731,4.446652531483382,2.2655235213577143,-2.7890141552768144,-2.354826013101262,-6.400937507333503,252.77777780888846,136.1111111278633,869.4444445514528,91.66666667794925,344.4444444868377,436.11111116478605,300.00000003692276,N
101_8,2349,6391.666667453334,6480.555556353163,6525.0000008030775,6575.000000809231,6819.4444452837615,17.339472609126226,-56.39829362706418,135.9587479688025,-47.25214893898988,16.0051291126444,-3.2410452797096583,2.394157357485414,-8.41714998143016,5.970331923630917,2.3086950767276906,244.44444447453043,133.33333334974304,869.4444445514537,94.44444445606769,338.8888889305981,427.7777778304271,294.44444448068407,N
101_9,2662,7261.111112004787,7350.000000904616,7394.444445354531,7447.222223138804,7694.444445391454,17.447076105893277,-51.928423488598455,126.78848054789336,-37.62919039964323,15.030812065579136,3.488470746066727,-3.1076715712778498,0.1294142487609506,-2.4501689470468,-5.52284218662943,247.22222225264977,133.33333334974395,861.1111112170929,97.22222223418794,344.4444444868377,433.3333333866667,300.00000003692276,N
101_10,2972,8125.000001000001,8211.11111212171,8255.555556571624,8305.55555657778,8566.666667721027,18.569366525069125,-50.808064181962514,127.85770133591475,-45.24512160169716,15.566426335188142,2.4467618784879392,6.041092445769829,-6.474321427201404,-0.138041340264559,-1.599639786686923,261.1111111432474,130.5555555716228,913.8888890013677,94.4444444560686,355.555555599316,441.66666672102565,311.11111114940286,N
101_11,3301,9025.00000111077,9125.00000112308,9169.444445572992,9222.222223357268,9494.444445612991,18.367381511197923,-45.67687222316169,119.42650547044194,-43.42380006701913,13.210461828916475,-3.010185263313967,3.763715085860445,-12.060067918513832,7.507565578908522,1.6771636479507812,272.22222225572295,144.44444446222224,916.6666667794889,97.22222223418794,369.4444444899109,469.4444445022218,325.0000000399996,N
101_12,3631,9938.888890112135,10038.888890124446,10086.11111235248,10133.333334580511,10394.444445723762,14.990362426873627,-47.890694773622045,124.51866599766036,-46.776391682460485,11.48918742626284,-4.296955596483824,-0.0242721417647909,-5.869852934229744,4.691381154180803,-1.4249451580994423,261.11111114325104,147.22222224034522,913.8888890013677,94.44444445606496,355.555555599316,455.5555556116269,308.3333333712817,N
101_13,3960,10863.888890225984,10955.555556903932,11000.000001353848,11052.77777913812,11297.22222361265,17.24686003228515,-48.39545184681019,118.40021369847553,-41.665070140167806,13.93489209738248,4.220629522196136,4.842399676680185,-4.729412868069773,-1.695616118577025,-4.073984786858658,244.44444447453134,136.1111111278642,897.222222332648,97.22222223418794,341.6666667087193,433.3333333866667,297.2222222588025,N
101_14,4283,11763.888890336752,11852.777779236583,11897.222223686496,11950.000001470771,12197.22222372342,18.134900477273813,-48.43552319222745,115.21321961945569,-39.45541018506355,13.64976370780352,-3.982125721211221,1.0631961701968284,-8.655204692274875,4.993380484232283,-0.4939694337417856,247.22222225264886,133.33333334974486,905.5555556670097,97.22222223418794,344.4444444868368,433.3333333866685,300.00000003692367,N
101_15,4609,12669.44444600376,12758.333334903591,12802.777779353506,12855.55555713778,13091.66666827795,17.508176354090658,-44.537050249679446,109.52731937862892,-40.29257139977386,12.525630046932871,2.7749738149755485,6.12094760330858,-7.211042769793775,0.7984511335416549,-2.7226805371339617,236.11111114016967,133.33333334974668,886.1111112201706,97.22222223418976,333.3333333743594,422.22222227419115,288.8888889244445,N
101_16,4928,13555.555557223934,13644.444446123762,13688.888890573677,13738.88889057983,13977.77777949812,16.71609647909856,-40.09180453915216,99.36706909323772,-35.75821338453389,11.19691571744518,-2.659395356560996,0.8126729233013016,-8.484190640154944,4.511183519808237,-1.2793248993415711,238.888888918289,133.33333334974304,869.4444445514528,94.4444444560686,333.3333333743576,422.2222222741857,288.88888892444265,N
101_17,5241,14416.666668441028,14513.888890675214,14558.33333512513,14611.111112909402,14852.777779605814,16.24981827652325,-47.83255711504436,116.69143934306904,-40.18272672505776,12.69817858555969,5.542600057875355,2.2775827774332518,-4.492006373755781,-2.3177035749498365,-7.279403131863215,241.666666696412,141.66666668410107,911.1111112232484,97.22222223418794,338.88888893059993,436.11111116478605,294.444444480685,N
101_18,5569,15327.777779664277,15425.000001898465,15469.444446348378,15522.22222413265,15769.4444463853,15.282424778284597,-49.03424776852605,116.47809114289387,-42.92750617555142,13.020040549143411,-1.638133415330241,5.984248159636779,-12.529793977737553,6.53490022580271,2.402754209857324,247.22222225264886,141.66666668410107,913.8888890013677,97.22222223418612,344.444444486835,441.6666667210229,300.00000003692185,N
101_19,5898,16233.333335331285,16338.88889089983,16383.333335349746,16436.11111313402,16697.222224277266,17.512909108452043,-44.82494396875496,107.65124554887932,-40.862893050805496,11.102964162506094,-2.8305130893156205,-0.7080513202561232,-7.243683929346855,4.373978762968276,-1.6882414978591425,261.1111111432474,150.00000001846092,902.7777778888903,97.22222223418794,358.33333337743534,463.8888889459813,313.8888889275204,N
101_20,6223,17144.44444655453,17241.66666878872,17286.111113238636,17336.111113244788,17588.888891053677,16.202378488483646,-46.96545214839758,114.6686945719774,-40.56441119265204,12.800921477143548,3.141564013586544,-2.484597711665628,-1.2504678470882142,-0.6916630708621323,-5.943579658913412,252.77777780888937,141.6666666841047,847.2222223264944,94.4444444560686,347.22222226495796,444.4444444991459,302.7777778150412,N
101_21,6528,18005.555557771626,18088.888891115217,18133.33333556513,18186.111113349405,18425.00000226769,17.80194139259246,-48.54819961322696,113.09607762522428,-41.160262577576496,13.24024536001431,4.534275691206219,5.022409188186854,-5.2508690742889526,-3.0192061411719155,-6.256036627441318,238.88888891828537,127.77777779350436,838.8888889921363,97.22222223418794,336.1111111524733,419.44444449606453,291.6666667025602,N
101_22,6830,18844.44444676376,18927.777780107357,18972.222224557267,19025.00000234154,19266.66666903795,18.362448490048003,-48.8323168790436,114.462320704362,-40.63457554980966,12.136193921682649,-0.6836127624849228,7.219658764481037,-9.998542224480635,4.669105707073485,1.7666158831669758,241.66666669640836,127.777777793508,869.4444445514528,97.2222222341843,338.88888893059266,422.22222227419115,294.44444448068316,N
101_23,7143,19702.777780202738,19797.222224658806,19841.66666910872,19891.666669114875,20144.444446923764,16.220096687085018,-46.30964724335306,111.21450109204584,-40.43541452429023,12.272393516941976,-4.2416447677653695,2.0885703226179637,-10.317753204440862,5.873690781705181,1.0453526472964865,252.77777780888937,138.88888890598173,888.8888889982918,94.4444444560686,347.22222226495796,441.66666672102656,302.77777781504483,N
101_24,7463,20594.44444697915,20686.111113657094,20730.55555810701,20783.33333589129,21033.33333592205,19.44802030510716,-44.68538918907787,105.28853648872878,-37.87913619516347,11.943695652381605,1.1154113833178396,-2.4721554735006905,-2.67772216883717,-0.5053005356672711,-3.713783472003833,250.0000000307591,136.1111111278624,897.2222223326498,97.22222223419521,347.2222222649543,438.88888894289994,302.77777781503755,N
101_25,7786,21491.6666693118,21583.333335989744,21627.77778043966,21680.555558223936,21927.777780476583,18.679678863335724,-44.21648264858818,104.51565870632224,-37.93391782970197,12.155436462374617,4.5755551871990745,4.013981135076154,-7.163328009367763,-1.4472679029448652,-5.654243390887362,247.22222225264704,136.1111111278624,886.1111112201688,97.22222223419158,344.4444444868386,436.11111116478423,300.00000003692185,N
101_26,8105,22380.555558310087,22469.44444720992,22513.88889165983,22566.666669444105,22813.888891696755,18.52080477525878,-40.80571606713063,99.97305350163288,-35.285408591156326,11.511623628192,-0.527414116414072,6.231762256594052,-12.167257963743356,7.273697775070709,2.1718412066486463,247.22222225265068,133.33333334974304,858.3333334389754,97.2222222341843,344.444444486835,433.3333333866685,300.0000000369255,N
101_27,8414,23233.333336192823,23327.77778064889,23372.222225098805,23419.44444732684,23658.33333624513,17.233985910995713,-45.78318346360607,122.26086312296384,-44.08942088284864,12.672981440907025,-1.9118879671992484,4.172065753808951,-10.617458581595516,6.031786134392176,2.336259360561926,238.888888918289,138.88888890598173,852.7777778827403,91.66666667795289,330.5555555962419,425.00000005230686,286.11111114632513,N
101_28,8721,24094.44444740992,24183.333336309744,24225.000002981546,24277.777780765813,24513.888891905983,18.07154037610636,-51.50301182137618,121.76067707459818,-44.297802943074885,13.883122957990526,-1.527522861675383,-2.272760351292459,-4.12560452399536,2.0140977300317373,-2.407409951509968,236.11111114016967,130.55555557162734,847.2222223264944,94.4444444560686,330.55555559623826,419.44444449606453,288.8888889244372,N
101_29,9026,24936.11111418017,25025.000003080004,25072.22222530804,25127.77778087043,25361.11111423248,18.59413290833137,-48.31360212789159,111.73178485776928,-37.73303839531777,12.388340251091286,4.7031867380591015,1.6987116846553032,-6.129989521286908,-1.7845529423319595,-5.593933947799004,233.33333336205033,136.11111112786966,819.4444445452973,102.77777779042663,336.11111115247695,425.0000000523105,288.88888892444083,N
101_30,9321,25758.333336503594,25847.22222540342,25891.666669853337,25941.66666985949,26191.66666989026,18.700974924951904,-48.32478787564152,114.8481342318929,-41.12939553654805,13.62581620337207,3.1390293541758254,4.4290787915872185,-5.278814914029532,-1.193396413185457,-1.3206232976683503,250.00000003077002,133.33333334974304,852.7777778827331,94.4444444560686,344.4444444868386,433.3333333866649,300.00000003692185,N
101_31,9628,26613.888892164447,26702.77778106428,26744.44444773607,26797.222225520345,27047.222225551115,18.246534474792515,-46.94097912417647,115.52476219876564,-40.47496535185928,13.179721271256934,-1.4897944360790565,6.1122741861852425,-10.42479245045556,6.535062255860343,3.19656697234077,250.00000003077002,130.5555555716237,902.7777778888885,94.44444445606496,344.444444486835,433.3333333866685,302.77777781504483,N
101_32,9953,27505.555558940858,27600.000003396926,27647.22222562496,27697.222225631114,27975.00000344308,16.368410739065425,-51.76000311094327,120.09153274672572,-40.33984751877765,11.956475611284004,-3.977794542819594,0.2685963829677067,-8.321445703416938,5.7865812891012265,-1.9806089324049911,277.7777778119671,141.66666668410107,911.1111112232502,97.22222223418794,375.00000004615504,469.44444450222363,327.77777781812256,N
101_33,10281,28419.444447942224,28513.88889239829,28558.33333684821,28608.33333685436,28866.66667021949,16.358335101978703,-43.785371660758216,101.46058154642506,-35.17495511629316,11.504505570702314,4.12588451092301,-0.8608372409795567,-4.113446569082225,-0.7169894670392817,-6.263218267255271,258.33333336512806,138.88888890598537,858.3333334389754,94.44444445607223,352.7777778212003,447.22222227726525,308.3333333712799,N
101_34,10590,29291.6666702718,29372.222225837268,29416.666670287184,29466.666670293336,29700.000003655387,15.798465583263676,-45.930568764451365,111.64978624450964,-39.727606232131,14.34752677676134,3.4811258170976664,1.001763556454942,-4.4659262087658025,-2.141166036501557,-6.343836891264815,233.33333336205033,125.00000001538501,838.8888889921363,94.4444444560686,327.7777778181189,408.33333338358716,283.33333336820215,N
101_35,10892,30127.777781485816,30208.333337051285,30255.55555927932,30305.555559285476,30544.444448203765,20.98147300342934,-52.13352951073505,126.05082421130147,-43.65544861610911,15.767729323747613,1.0502698332901428,5.765120350109972,-8.21642546951991,4.379078836197238,2.698421895899,238.888888918289,127.77777779350436,813.8888889890586,97.22222223419158,336.1111111524806,416.66666671794883,288.8888889244445,N
101_36,11185,30941.666670474875,31025.000003818463,31069.44444826838,31116.666670496412,31347.222226080343,22.308844520731384,-57.66936025527548,140.45515864727338,-48.84117136905518,18.87112947011265,0.1990028559455626,2.517640546418113,-3.6921227471692832,2.808803422373732,2.7469075677446013,230.55555558393098,127.77777779350436,791.6666667641039,91.66666667794925,322.22222226188023,405.5555556054678,277.77777781196346,N
101_37,11470,31733.33333723898,31819.44444836069,31861.111115032483,31911.111115038635,32150.000003956928,21.157923108504644,-55.10311827747835,141.9134794382863,-51.05568741051135,19.45150528029632,1.1836803095998254,3.835234396698037,-2.1396317137100125,-1.275943271318242,-2.5316135803297826,238.88888891829265,127.77777779350436,805.5555556547006,91.66666667794561,330.55555559623826,416.66666671794883,288.8888889244445,N
101_38,11760,32527.7777817812,32622.222226237267,32666.666670687184,32713.888892915216,32972.22222628035,15.292832351874694,-60.564160490621454,146.38772244950584,-50.49347600869133,21.541648014286253,2.0986506485354544,-4.142680823338637,2.5580389362783853,-0.9468515063242438,-3.414628120038766,258.3333333651317,138.88888890598537,805.555555654697,91.66666667794925,350.00000004308095,444.44444449914954,305.5555555931642,N
101_39,12050,33338.88889299214,33422.22222633573,33472.22222634188,33519.44444856992,33783.33333749128,18.09554441084595,-55.64816411753759,148.33796651692893,-57.245465196984,20.82896518787906,-3.8522042466489994,0.6841490045958596,-0.6034988224069807,2.3387390491883493,2.7705910156753504,263.8888889213631,133.33333334974304,800.0000000984655,97.22222223418794,361.11111115555104,444.4444444991459,311.11111114940286,N
101_40,12338,34133.333337534365,34227.77778199043,34272.222226440346,34319.44444866838,34566.66667092103,20.77449170065855,-58.3073016615501,147.45825592915594,-51.06540508215338,19.316342252603445,6.1739027642399815,-2.900324745752104,1.982809900069628,-3.064279475608012,-6.540785591562722,247.22222225265432,138.88888890598173,786.1111112078652,91.66666667794925,338.88888893060357,433.3333333866685,294.4444444806868,N
101_41,12621,34925.00000429847,35013.888893198295,35058.33333764821,35108.33333765436,35363.88889324137,20.7480622119258,-57.54401417681853,141.6616668958555,-49.40054688538882,17.68679795479765,-2.78654610901018,1.08457109094115,-7.6878388464467555,6.246177488447474,4.463075578519567,255.5555555870087,133.33333334974304,805.555555654697,94.44444445606496,350.00000004307367,438.88888894289994,305.5555555931569,N
101_42,12911,35727.77778217505,35816.66667107488,35863.88889330291,35911.11111553094,36144.444448893,20.214307656713785,-53.59661511722594,134.90466764633538,-47.81000194082956,16.892234374053665,4.916671911973624,1.0416866840731247,-1.9028552183073189,-3.322084625264536,-4.724688911978345,233.33333336206124,136.11111112785875,755.5555556485488,94.44444445605768,327.7777778181189,416.66666671795247,280.5555555900937,N
101_43,13183,36488.88889337983,36575.00000450154,36619.44444895146,36669.44444895761,36902.77778231966,21.671505733882512,-52.94241714563872,130.74940134107993,-46.98013830051856,19.22106344668317,-2.1061605612047707,-2.5191565743882856,-4.631130680288928,3.3900134148505874,-2.687479014917358,233.3333333620467,130.55555557162734,761.1111112047874,94.44444445607223,327.7777778181189,413.8888889398295,283.33333336820215,N
101_44,13457,37252.77778236274,37336.11111570633,37380.555560156245,37430.5555601624,37677.77778241505,21.813012576432047,-52.72196788309706,129.11816854427943,-45.98012773686744,17.895472155056236,-1.8736694638159932,5.426934271847219,-12.066581694743416,4.889231523471626,1.2000728586511629,247.22222225264704,127.77777779350436,786.1111112078652,94.44444445607223,341.6666667087193,425.00000005230686,297.2222222588025,N
101_45,13740,38030.55556023624,38119.44444913607,38166.66667136411,38213.88889359214,38472.22222695727,21.50617651027035,-55.91555148478952,139.26881721502474,-47.0284644331541,17.355979406337116,2.8891260326284223,3.367064511964199,-5.623089880785491,0.0277241727478855,1.343545453728059,258.3333333651244,136.1111111278733,805.555555654697,94.44444445607223,352.77777782119665,441.6666667210302,305.5555555931569,N
101_46,14030,38844.4444492253,38925.00000479077,38972.22222701881,39022.22222702496,39275.00000483385,19.126237672328173,-56.73639784097478,136.78423764202603,-48.394900447105016,16.037019719618982,3.5781048231214703,-1.2656064790169288,-3.348675488494932,-2.3802263106775223,-6.032891406028697,252.77777780888573,127.77777779350436,841.6666667702593,97.22222223419521,350.00000004308095,430.55555560854555,302.7777778150412,N
101_47,14333,39675.00000488309,39769.44444933915,39813.888893789066,39863.88889379522,40122.222227160346,20.551831842066388,-55.54217216877446,136.671801612795,-48.406400026689845,16.418874959881553,0.0235852157410264,-0.8991867025065103,-7.228139012350002,5.372268805251802,-2.7914674108102586,258.3333333651244,138.88888890597445,852.7777778827367,94.44444445607223,352.77777782119665,447.22222227725433,308.3333333712799,N
101_48,14640,40533.33333832205,40622.222227221886,40666.6666716718,40716.66667167795,40952.77778281812,21.30365663878773,-52.68597727678556,130.11300421175338,-46.49996652610161,25.06046664638393,-4.519790356852461,2.3746082285904904,-9.729124783173765,5.534849256732468,0.882660085350093,236.11111114016967,133.33333334975032,786.1111112078579,94.44444445606496,330.5555555962346,419.4444444960682,286.11111114631785,N
101_49,14923,41322.22222730804,41408.33333842975,41452.77778287966,41505.55556066394,41744.444449582224,23.004144286519143,-51.126188118578106,126.4183009377429,-44.3898619058316,14.507428518506105,1.985837094437315,4.84281318077855,-9.59857767050304,3.4017654451363337,-0.0300038232914371,238.88888891828537,130.55555557162006,755.5555556485488,97.22222223418794,336.1111111524733,422.2222222741839,291.6666667025638,N
101_50,15195,42080.55556073471,42163.88889407829,42208.33333852821,42258.333338534365,42497.22222745266,21.309207599186923,-50.06341943052239,124.39744876297728,-44.552741581469554,13.480171657387537,2.213335611511248,-1.8023205558026048,-4.012252751437849,-0.5226420015923656,-6.754084791509428,238.88888891829265,127.77777779349708,775.0000000953878,94.44444445607223,333.3333333743649,416.6666667179452,288.8888889244481,N
101_51,15474,42850.000005273854,42938.88889417368,42983.3333386236,43033.33333862975,43277.77778310428,18.30514386743924,-49.86147282957795,123.9603459214586,-45.070291863819016,14.91695146164134,-3.293012291250684,3.262573632374904,-10.91357526343673,6.223649239389582,0.6177145674409652,244.44444447452406,133.33333334974304,794.4444445422196,94.44444445607223,338.8888889305963,427.77777783042256,294.4444444806795,N
101_52,15760,43650.00000537231,43733.3333387159,43777.77778316582,43830.55556095009,44061.11111653402,20.822365833816423,-50.05444301920665,119.88716139077124,-43.98337090971187,15.648619482805572,-0.1587252951504444,6.096683330493644,-11.999064847641218,5.840810281671707,0.4820996430273811,230.55555558393098,127.77777779350436,808.3333334328199,97.22222223418794,327.7777778181189,411.1111111617065,283.33333336820215,N
101_53,16051,44450.00000547077,44541.66667214872,44586.11111659864,44638.88889438291,44872.22222774496,20.10167758677334,-48.59863692307491,116.8538912264426,-42.63056956245512,14.30555636368088,3.739458365451916,5.9189056976476575,-8.785111909338818,1.896203711933107,-2.9290705442556515,233.33333336205396,136.11111112786602,833.3333334358904,97.22222223418794,330.5555555962419,422.22222227419115,286.11111114632513,N
101_54,16351,45280.55556112855,45375.00000558462,45419.44445003453,45472.222227818806,45716.66667229334,18.86931867281661,-48.06086424325364,117.27886950529684,-42.15445703801222,12.483871972157962,3.1919834374981724,4.716067255007515,-8.204242665235256,0.7600025622173967,-4.308809497680201,244.44444447453134,138.88888890597445,844.4444445483823,97.22222223418794,341.6666667087193,436.11111116478423,297.2222222588098,N
101_55,16655,46122.22222789881,46219.444450133,46263.88889458291,46313.888894589065,46569.44445017607,17.592222788892926,-49.559992178308505,119.8283078492359,-42.25260184226322,13.268247187946216,3.5505628721555524,3.0947314737078324,-6.524072874587331,-0.8987220737150741,-5.484201132613198,255.5555555870087,141.66666668409744,836.1111112140206,94.44444445606496,350.00000004307367,447.2222222772616,305.5555555931642,N
101_56,16956,46963.88889466906,47055.55556134701,47100.00000579693,47152.7777835812,47405.555561390094,17.397968799675372,-47.146346245971294,113.30654568910508,-40.17042571988564,13.069952501603376,2.56115525695886,1.0455234257099817,-6.56323058934832,0.1989673991748927,-5.96435643221956,252.777777808893,136.1111111278733,816.666666767167,97.22222223418794,350.00000004308095,441.6666667210375,305.5555555931642,N
101_57,17250,47783.33333921436,47872.2222281142,47916.6666725641,47966.66667257026,48202.77778371043,19.306730594778383,-43.616764062433234,105.49457698761564,-37.68829699791704,13.841566370665152,0.2744969996032401,-1.1976658516523582,-8.134998948275735,4.6233246988024925,-1.6422088189481998,236.11111114016967,133.33333334973577,783.3333334297567,94.44444445605768,330.55555559622735,419.4444444960682,286.1111111463324,N
101_58,17532,48575.00000597847,48655.55556154394,48700.000005993854,48750.000006,48986.11111714018,18.87708031080582,-44.06554389603043,104.53150097090668,-38.18951423739544,14.08836683821455,-4.332523185759295,2.040502929909183,-10.07168006328981,5.820752768647685,0.4929572140515262,236.11111114017694,125.00000001538137,783.3333334297495,94.44444445606496,330.5555555962419,411.1111111617065,286.11111114632513,N
101_59,17814,49355.55556163009,49438.88889497368,49483.3333394236,49533.33333942975,49763.88889501368,19.590811244109105,-45.06618246520191,107.01730926923015,-39.12661802592596,14.672025366658628,-0.827655239210517,5.093917778138526,-12.276136264472347,5.340093560674392,0.432631433622849,230.55555558393098,127.77777779351163,791.6666667640966,94.44444445607223,325.0000000400032,408.3333333835908,280.55555559007917,N
101_60,18099,50144.44445061607,50230.55556173778,50275.0000061877,50325.00000619385,50577.77778400274,20.5857986483148,-48.83502995153653,115.82980377676375,-41.57785471830248,13.366773946114936,3.2620046282735915,5.70744529722168,-9.624124842199048,2.2433400559159327,0.1241605605333731,252.777777808893,130.55555557162734,825.0000001015433,94.44444445606496,347.22222226495796,433.3333333866685,302.7777778150412,N
101_61,18396,50958.33333960513,51055.55556183932,51100.00000628924,51150.00000629539,51408.33333966052,17.039450494078423,-47.53724356114667,111.80234386805584,-40.09120586168732,13.59776342663955,2.330160855042186,0.5561085627016812,-6.960138194103735,1.7124733522419875,-5.40622586963435,258.3333333651317,141.666666684112,808.3333334328127,94.44444445607223,352.7777778212039,450.00000005539187,308.3333333712799,N
101_62,18687,51772.2222285942,51863.88889527214,51908.333339722056,51961.11111750633,52219.44445087146,18.05672499296408,-46.574913472229184,109.78156558387046,-38.049495060230576,13.494351052096867,-2.91870095493334,4.977475608811079,-13.805580179471152,6.234587442483799,1.8474926898562487,258.3333333651317,136.11111112785875,805.5555556547042,97.22222223418794,355.55555559931963,447.2222222772616,311.11111114940286,N
101_63,18977,52586.111117583256,52666.66667314872,52713.88889537676,52763.88889538291,53011.11111763556,18.894916398028958,-43.713943399773015,102.30133825290842,-36.65541466903741,11.38634062832429,3.1571438664440943,3.0836290003312925,-8.182565566240884,0.3174996763653143,-5.424070778665143,247.22222225265432,127.77777779350436,805.555555654697,97.22222223418794,344.44444448684226,425.00000005230686,297.2222222588025,N
101_64,19267,53388.88889545984,53475.00000658155,53519.44445103146,53569.44445103761,53816.66667329026,18.544264709606363,-41.6259584352872,102.71917999907042,-36.56006237405512,9.80071792082785,1.2147494565877708,-0.3611580120190981,-7.124623445847948,1.86581720772414,-5.1984307535434535,247.22222225264704,130.55555557162006,808.3333334328199,94.44444445606496,341.666666708712,427.77777783042256,297.2222222588025,N
101_65,19558,54202.777784448896,54283.33334001437,54327.77778446428,54377.77778447043,54613.8888956106,19.761509113579717,-45.55917320475567,109.22192095433962,-38.88935904936044,12.305742499972403,-0.3455365344177263,-1.5063966851733288,-6.68115287090055,3.514015645843115,-3.3045145335166963,236.11111114016967,125.00000001538137,838.8888889921363,94.44444445606496,330.5555555962346,411.1111111617065,286.11111114632513,N
101_66,19860,55036.11111788479,55125.00000678462,55166.66667345641,55216.66667346257,55458.33334015898,18.49677940680437,-47.26272872888954,115.31190482802452,-40.76360727023042,11.812915281148369,3.2561055436496367,1.5728429167667546,-5.249175521196515,-0.5968083807057296,-5.334572867022161,241.66666669640836,130.55555557162006,869.4444445514528,91.66666667794925,333.3333333743576,422.2222222741839,291.6666667025638,N
101_67,20173,55897.22222910189,55991.66667355796,56036.111118007866,56083.33334023591,56319.44445137608,17.958457900506296,-42.66031001735771,109.5247079844359,-39.050399318898926,10.680095705132237,0.9323705017025676,4.705832305235645,-11.354764643531842,4.307188678914766,0.8139802375830195,236.11111114016967,138.88888890597445,888.8888889982918,91.66666667795653,327.7777778181262,422.22222227419115,283.3333333682167,N
101_68,20493,56786.111118100176,56880.55556255625,56925.00000700616,56975.00000701231,57225.00000704308,16.153208008529198,-47.35668900841424,120.88517141154456,-44.19739753519677,10.97422259004942,0.1269996560932469,-2.173777848900689,-4.032236738996804,2.999643374683058,-2.182470745008623,250.00000003077002,138.88888890598173,913.8888890013695,94.44444445606496,344.444444486835,438.8888889429072,300.0000000369255,N
101_69,20822,57700.000007101546,57794.44445155761,57838.88889600753,57888.88889601368,58144.44445160069,17.664238982244285,-49.52103153306656,122.11181521212244,-43.30325587754327,11.100802577691748,1.1630218329462176,5.397815682888544,-10.590179489492195,3.5104448407158264,0.9797921345326244,255.5555555870087,138.88888890598173,955.5555556731633,94.44444445607223,350.00000004308095,444.4444444991459,305.5555555931642,N
101_70,21166,58655.55556277471,58747.22222945266,58794.44445168069,58844.444451686846,59102.77778505197,17.780518117783323,-47.76276482663823,116.12398198276054,-40.71952520657141,10.224304670784424,3.04500330954643,0.8813265429265479,-6.6838415535168085,0.0317941573783332,-5.227715013122634,258.3333333651244,138.88888890598173,922.2222223357239,97.22222223418794,355.55555559931236,447.2222222772616,308.3333333712799,N
101_71,21498,59580.55556288856,59672.222229566505,59716.666674016415,59766.66667402257,60011.1111184971,16.601652548602587,-45.52705517789571,116.7898020024324,-42.04761546699733,10.199606063792098,-3.666517766085464,1.4850455759095365,-8.369959299494791,5.139380684137066,0.3487660108393639,244.44444447453134,136.11111112785147,861.1111112170984,94.44444445606496,338.8888889305963,430.55555560853827,294.4444444806868,N
101_72,21808,60450.00000744001,60533.3333407836,60577.77778523351,60627.77778523966,60869.44445193608,17.484131894883497,-46.49950626446409,116.21052826654936,-41.00302072520685,11.801322820576903,2.7890297127619195,4.14006054417796,-5.066172519425056,-0.305812763559333,-1.442883038458632,241.66666669641563,127.77777779350436,894.4444445545305,94.44444445605768,336.1111111524733,419.4444444960682,291.6666667025638,N
101_73,22130,61338.8888964383,61427.77778533813,61472.22222978804,61522.22222979419,61766.66667426872,19.74256838113047,-47.49653881675553,117.70817215341816,-41.07243500560658,10.577073159997513,2.295457006995715,-0.9793781270760288,-5.021981553103869,1.0287566305151197,-4.368641685441218,244.44444447453134,133.33333334974304,891.6666667764075,94.44444445606496,338.8888889305963,427.77777783042256,294.4444444806795,N
101_74,22451,62230.55556321471,62319.44445211453,62363.88889656445,62413.88889657061,62675.000007713854,20.684691295368232,-46.58867296523968,115.46280698341856,-41.44811790933583,10.207347416175924,-2.514610081173696,3.911726324587413,-11.454317947490395,5.976027000000928,0.6365102786156163,261.1111111432474,133.33333334974304,919.4444445576082,94.44444445607951,355.5555555993269,444.4444444991459,311.11111114940286,N
101_75,22782,63138.88889665984,63238.88889667214,63283.33334112206,63333.333341128215,63597.22223004958,15.347173608670497,-47.45645417397493,119.9480874513747,-42.562381059874255,8.956744561514538,0.7351145526562154,-1.5900578148064328,-5.149882030088112,3.377889785033742,-2.745906199270394,263.8888889213631,144.44444446222042,955.5555556731633,94.44444445607223,358.33333337743534,458.333333389739,313.88888892751856,N
101_76,23126,64105.55556344548,64194.444452345306,64238.88889679522,64291.66667457949,64555.555563500864,18.14818253466398,-51.18556287790851,123.16791190030492,-43.16766311252107,9.376607706259326,-3.2388958850770515,3.5083370208507336,-10.124061571406308,5.993619658076137,0.7383556036796128,263.88888892137766,133.33333334974304,919.4444445576082,97.22222223418066,361.1111111555583,450.0000000553846,316.66666670564155,N
101_77,23457,65025.00000800308,65113.888896902914,65158.33334135283,65208.33334135898,65450.0000080554,19.861606187323503,-47.48319382403607,115.2868470415547,-39.88202869214968,10.065537851723358,3.459780350537899,4.498728122980593,-6.938147500484967,0.7909961226644147,-1.878934112505421,241.6666666964229,133.33333334975032,880.5555556639301,94.44444445606496,336.11111115248787,425.0000000523214,291.6666667025711,N
101_78,23774,65908.33334144513,65994.44445256685,66038.88889701676,66088.88889702292,66338.88889705368,19.175365211776988,-44.83890752012992,112.41136551928136,-40.2674020149324,10.215300082554608,-1.5601052814086298,-0.9577059280159792,-6.095532541816667,4.645630823233797,-0.793754338136956,250.00000003076275,130.55555557162734,877.7777778858144,94.44444445606496,344.4444444868277,430.55555560854555,300.0000000369182,N
101_79,24090,66788.88889710906,66869.44445267454,66916.66667490258,66966.66667490873,67205.55556382702,20.667724871800328,-47.01245963330427,114.71221115960924,-40.37646964193068,12.296422600800517,4.527546976887432,0.9080595674799185,-4.593473150868655,-1.8132612341797187,-5.271368997439972,238.88888891828537,127.77777779351163,872.2222223295685,97.22222223419521,336.1111111524806,416.66666671795247,288.88888892444083,N
101_80,24404,67655.5555638824,67741.6666750041,67788.88889723214,67838.8888972383,68072.22223060035,19.73609597409033,-45.72412172759241,113.4073010637433,-39.6231981418532,12.43751986565329,-3.1422229836593094,4.405006278142777,-11.23297634265145,5.36298311085067,1.446644314937313,233.33333336205396,133.33333334974304,877.7777778858144,97.22222223419521,330.5555555962492,416.66666671795247,283.3333333682094,N
101_81,24720,68527.77778621197,68622.22223066805,68666.66667511796,68716.66667512411,68961.11111959865,17.74202573810392,-42.17574202146851,109.05316060657654,-38.22805653884632,10.426240561375868,2.2574122397505745,-1.1947506408773791,-5.519685448529635,1.2434349600411452,-4.411264340799808,244.44444447453134,138.888888905989,888.8888889982918,94.44444445606496,338.8888889305963,433.3333333866758,294.4444444806868,N
101_82,25040,69411.11111965403,69508.33334188821,69555.55556411625,69605.5555641224,69852.77778637505,16.040057289082675,-45.52157503379928,119.24773149523004,-43.14796601917895,10.767548240353085,3.334582186656728,1.2718281465820414,-3.4267397020293733,-1.5053753668983425,-5.358266973507049,247.22222225264704,144.44444446222042,927.7777778919699,97.22222223419521,344.44444448684226,441.6666667210229,297.2222222588025,N
101_83,25374,70341.66667532412,70436.11111978018,70483.33334200822,70533.33334201436,70788.88889760137,17.92923523104537,-48.4042278857636,114.945484012703,-40.69276787196007,11.397775942022031,-2.655821728278517,3.8650988064952223,-11.304037386354468,5.626509216326471,1.626100747841834,255.5555555870087,141.6666666841047,916.666666779478,97.22222223418066,352.7777778211894,447.22222227725433,305.5555555931496,N
101_84,25704,71261.11111988172,71355.55556433779,71400.0000087877,71452.77778657197,71691.66667549027,18.499863115875502,-45.28531453288602,109.15970798978164,-37.72184476065887,12.720977405060696,2.398673781203588,0.2562557915714124,-6.345282156695541,0.4003604728836736,-3.872289025322559,238.88888891829993,138.88888890597445,844.4444445483823,97.22222223418066,336.1111111524806,430.55555560854555,291.6666667025711,N
101_85,26008,72108.3333422082,72200.00000888616,72244.44445333608,72294.44445334224,72530.5555644824,18.18756233884508,-46.04419564157918,114.38654392760724,-41.284793362911074,11.82737130125996,3.3894772504646813,5.134561283551682,-6.692789024996646,0.781230420433904,-2.2884133008444176,236.11111114016967,136.1111111278733,838.8888889921363,94.44444445607951,330.5555555962492,422.22222227419843,286.11111114632513,N
101_86,26310,72950.00000897847,73038.88889787829,73083.33334232822,73133.33334233437,73375.00000903077,16.926549702871068,-49.58374904200728,119.60525305020846,-43.21700215563004,13.520701412176557,-3.0754178421208054,4.232423004057602,-10.183462045471472,4.588063513148157,1.2364221268191056,241.66666669640108,133.33333334974304,908.3333334451308,94.44444445607951,336.1111111524806,425.0000000522996,291.66666670255654,N
101_87,26637,73855.55556464547,73947.22223132342,73991.66667577335,74044.44445355762,74297.2222313665,19.194815932341918,-53.53929465256799,127.59086800774848,-45.878553475504,11.228260965214826,2.986732874885594,4.417817385143675,-5.40170874591671,-0.7635990187463335,-4.508692324890493,252.77777780887845,136.1111111278733,916.666666779478,97.22222223419521,350.00000004307367,441.6666667210229,305.5555555931496,N
101_88,26967,74772.22223142497,74863.88889810292,74908.33334255283,74961.1111203371,75216.6666759241,19.0477577615296,-48.43613467218411,114.18441679290008,-39.915511577831374,11.135894587244504,-2.716976699505872,3.319436417856912,-11.325189260526452,6.565054746186519,1.476097507444926,255.5555555870087,136.11111112785875,933.3333334482159,97.22222223418066,352.7777778211894,444.4444444991386,308.3333333712799,N
101_89,27303,75705.55556487317,75797.22223155112,75841.66667600104,75891.66667600718,76144.44445381608,19.12381280458484,-44.92243124441999,110.39554453332876,-39.95021585085584,10.908098272489209,3.4165355397426938,3.2235566001888696,-6.813722203513505,-0.2399575208186231,-4.855009131453887,252.777777808893,136.1111111278733,883.3333334420458,94.44444445606496,347.22222226495796,438.8888889429072,302.7777778150339,N
101_90,27621,76591.66667609334,76680.55556499318,76725.00000944309,76775.00000944924,77030.55556503625,18.16689938224557,-49.87465985073982,124.99061832749013,-45.17040589096331,12.26207177749512,2.975115073448804,5.572668954834082,-5.637036999166304,0.1822109006675501,-1.0511114005711415,255.5555555870087,133.33333334974304,869.4444445514528,94.44444445606496,350.00000004307367,438.8888889429072,305.5555555931642,N
101_91,27934,77463.88889842291,77547.2222317665,77594.44445399454,77638.88889844445,77883.33334291898,16.93271686440559,-51.90119963412005,137.0302746371895,-49.47421118632085,12.636624831019432,-0.1546389486464506,3.5578294544776483,-6.25415160385407,2.7286282416482703,0.648654638142171,244.44444447453134,130.55555557162734,858.3333334389754,91.66666667794925,336.1111111524806,419.4444444960682,288.88888892444083,N
101_92,28243,78322.22223186189,78408.33334298359,78452.77778743352,78500.00000966154,78733.3333430236,16.700531001237223,-49.90288177889639,128.71372685327182,-45.67032282531382,11.565619519270763,-3.667400882491345,1.123489825388059,-5.203159150619081,3.590545597876779,1.2577129329842458,233.33333336205396,130.55555557162734,877.7777778858144,91.66666667794925,325.0000000400032,411.1111111617065,280.55555559007917,N
101_93,28559,79200.0000097477,79286.1111208694,79330.55556531933,79380.55556532549,79611.11112090941,18.90323287848893,-54.34508186758636,130.39405359943746,-47.56708755433705,14.18628652154458,3.5337862132914317,1.1531299398627122,-2.106613449659793,-2.655114533107655,-4.909057992863148,230.5555555839237,130.55555557162734,838.8888889921363,94.44444445607951,325.0000000400032,411.1111111617065,280.55555559007917,N
101_94,28861,80036.11112096172,80125.00000986154,80169.44445431147,80219.44445431762,80461.11112101402,19.38048687862624,-56.03798529139391,136.2165349408976,-49.64867956281918,12.857402028703072,2.359063434008132,4.598502583024389,-5.961456343131509,1.5169764063923037,-0.7226346911294593,241.66666669640108,133.33333334974304,816.6666667671816,94.44444445607951,336.1111111524806,425.0000000522996,291.66666670255654,N
101_95,29155,80850.00000995077,80941.66667662872,80986.11112107865,81038.88889886292,81291.6666766718,19.53650318797275,-48.18116634775016,114.3516757548637,-40.21319005363651,11.426155278753631,3.848049941009632,3.7706813002587056,-7.282477967905232,-0.4114506467740207,-4.934572293480603,252.77777780887845,136.1111111278733,866.6666667733225,97.22222223419521,350.00000004307367,441.6666667210229,305.5555555931496,N
101_96,29467,81711.11112116787,81811.11112118018,81852.77778785197,81905.55556563624,82163.88889900138,17.979004029130177,-49.67653734812769,117.44816463447336,-41.354140227413616,10.851577617980318,2.2974230700947924,2.4776673431310847,-7.632991152815117,1.7954147828640674,-5.550298905304728,258.33333336513897,141.6666666841047,875.0000001076987,94.44444445606496,352.7777778212039,452.77777783351485,311.11111114941014,N
101_97,29782,82591.66667683181,82683.33334350976,82727.77778795967,82780.55556574394,83036.11112133095,17.90816282304513,-50.054696327049975,118.54915406651898,-41.36449265071543,10.120306988710976,3.50327924177274,2.863031721833288,-6.357483928435677,-1.371185291962863,-4.768441172922394,255.5555555870087,136.11111112785875,850.0000001046137,97.22222223418066,352.7777778211894,444.4444444991386,308.3333333712799,N
101_98,30088,83450.00001027079,83533.33334361437,83577.77778806428,83627.77778807044,83866.66667698872,19.931439433164297,-43.65716111619194,104.7603184602306,-36.959676719830135,10.65348399105124,3.376592385596683,4.859107272175469,-8.51750168217338,2.1963078262383147,-1.3729005096953582,238.88888891828537,127.77777779349708,830.5555556577747,94.44444445606496,333.33333337435033,416.6666667179379,288.88888892444083,N
101_99,30387,84275.00001037231,84363.88889927215,84408.33334372206,84458.33334372821,84694.44445486838,18.24961884022872,-41.544335052394445,100.10946037051824,-35.62944237535473,10.561610848666996,-1.3299242009021457,7.907036198583356,-16.611633997847708,7.029000870109547,1.0463399241815037,236.11111114016967,133.33333334974304,836.1111112140206,94.44444445606496,330.5555555962346,419.4444444960682,286.11111114632513,N
101_100,30688,85116.66667714257,85200.00001048617,85244.44445493608,85297.22223272035,85527.77778830429,19.367066124697097,-40.896802038734506,96.39583202280544,-35.90627417138984,9.992418258299256,-2.984103626509448,3.970830862026046,-14.646596069216372,6.550650782812823,-1.4744934588128626,230.55555558393826,127.77777779351163,825.0000001015433,97.22222223418066,327.7777778181189,411.11111116172106,283.3333333682094,N
101_101,30985,85941.66667724411,86025.0000105877,86069.44445503762,86119.44445504378,86363.8888995183,16.638195421941166,-42.563889525442434,101.62543014354976,-35.54897106110936,10.631427548772995,-0.4551247262404423,0.149592980186723,-10.451847247072935,4.462854160044291,-2.8288842899123554,244.44444447451679,127.77777779351163,902.7777778888849,94.44444445607951,338.8888889305963,422.2222222741839,294.44444448067225,N
101_102,31310,86830.5555662424,86927.7777884766,86972.2222329265,87025.00001071078,87280.55556629779,14.901979517140106,-42.82290318831558,101.55403276114264,-36.54687625772116,10.276206648561622,3.319813833746841,6.202516165704091,-9.845235591436497,1.4498328115768426,-3.1147065768065594,255.5555555870087,141.6666666841047,900.0000001107692,97.22222223418066,352.7777778211894,450.0000000553846,308.3333333712799,N
101_103,31634,87730.55556635317,87830.55556636548,87872.22223303728,87925.00001082155,88172.2222330742,15.34385087601067,-42.743761955704784,101.19888196696311,-35.39392785991225,9.763847779831616,-1.4797551580075945,7.128957903827507,-14.83215955393668,7.192308576138048,1.1511480730972858,247.22222225264704,141.6666666841047,869.4444445514528,94.44444445606496,341.666666708712,441.6666667210229,300.0000000369182,N
101_104,31947,88608.33334423898,88697.22223313882,88741.66667758873,88788.88889981677,89047.22223318189,17.915320930218115,-47.33271997379888,114.14015487685488,-39.90712641290135,10.82570746652347,-2.927275352383893,2.543485857389805,-11.138007115611272,7.429398616751469,-0.1670727132321695,258.3333333651244,133.33333334974304,875.0000001076987,91.66666667794925,350.00000004307367,438.8888889429072,305.5555555931642,N
101_105,32262,89483.33334434668,89572.2222332465,89616.66667769643,89663.88889992445,89922.22223328958,18.850405849792686,-48.34013890741036,124.8895358652163,-44.79263644462232,12.143469723669684,1.6087613410880337,-2.379956370162186,-4.198050685268788,3.2283007068238527,-4.800377557700874,258.3333333651244,133.33333334974304,841.666666770252,91.66666667794925,350.00000004307367,438.88888894289266,305.5555555931496,N
101_106,32565,90333.3333444513,90413.88890001675,90458.33334446668,90505.5555666947,90747.22223339112,20.940100413282376,-48.85060074666162,120.84333238840073,-43.27757644508956,14.335984958891403,3.409359462587255,2.8272258046052814,-5.346612008285322,-0.8119718276191684,-3.61772589399066,241.66666669641563,125.00000001538137,836.1111112140206,91.66666667794925,333.3333333743649,413.8888889398222,288.88888892444083,N
101_107,32866,91169.4444556653,91250.00001123078,91294.4444556807,91347.22223346496,91580.55556682702,19.870267099320785,-47.96875698367551,112.79538630987987,-39.547146931986376,13.528866704885044,-2.804286693626007,6.918431551465494,-15.63232059789216,8.000885941610596,0.3173644535181969,233.33333336206852,125.00000001539593,830.5555556577747,97.22222223418066,330.5555555962492,411.11111116172106,286.11111114632513,N
101_108,33165,91997.22223354496,92080.55556688856,92125.00001133847,92172.2222335665,92422.22223359728,17.104300549270658,-62.306928110524495,154.94977413845314,-52.46843442176456,21.12103714265061,-2.392531855594619,-0.4631599266378234,-8.502045541094304,5.851662196773478,-0.8895452016333406,250.0000000307773,127.77777779351163,838.8888889921218,91.6666666779347,341.666666708712,425.00000005231414,297.2222222588025,N
101_109,33467,92841.66667809334,92922.22223365882,92963.8889003306,93013.88890033677,93263.88890036751,12.93290222698773,-40.59131169139063,95.42245565231396,-32.121948670256195,15.935619207197096,-3.918799270702784,1.659343518102017,-10.33287530685852,6.621716201008677,0.5312736149321657,250.0000000307482,122.22222223725112,861.1111112171056,91.66666667794925,341.66666670869745,422.2222222741693,300.0000000369182,N
101_110,33777,93683.3333448636,93783.33334487592,93825.0000115477,93877.77778933196,94130.55556714088,9.709225985944444,-32.03367430560242,68.33217697779136,-25.27940850886588,14.125029819929477,0.395695038831213,5.492677561083297,-9.421883383960168,2.559407602068982,-5.173788888363985,252.7777778089221,141.6666666841047,875.0000001076987,94.44444445603585,347.22222226495796,447.22222227728344,305.5555555931787,N
101_111,34092,94566.66667830566,94658.3333449836,94700.0000116554,94750.00001166156,94994.44445613609,11.179995625418185,-35.88090168463069,79.2511885173839,-29.66191068918638,18.156703847524536,1.6619812496066997,-0.7653989336563148,-7.968771304620792,2.4757821224675,-1.907332976710037,244.44444447453134,133.33333334974304,830.5555556577601,91.66666667794925,336.1111111524806,427.77777783042984,294.4444444806868,N
101_112,34391,95394.44445618532,95486.11112286328,95530.55556731316,95580.55556731932,95813.88890068138,12.198496527242026,-45.32026131127178,101.31174960589478,-37.07108058399847,23.58000641166855,-4.0155976677344025,2.561739610908264,-11.90469037608831,6.051131077825507,1.4997363997764566,233.33333336206852,136.1111111278442,800.0000000984728,94.44444445603585,327.77777781810437,419.4444444960682,283.333333368224,N
101_113,34679,96205.55556739624,96286.11112296172,96330.55556741163,96380.5555674178,96619.44445633607,15.833639375082395,-51.89891327475214,118.9147453204256,-42.78902984741173,22.70550657679895,-5.344349846411257,5.868169589129744,-13.669553765333506,5.03988843550044,0.0854588862173271,238.88888891827082,125.00000001539593,836.1111112140061,94.44444445607951,333.33333337435033,413.88888893983676,288.88888892444083,N
101_114,34980,97038.88890083214,97122.22223417574,97166.66667862564,97216.6666786318,97466.66667866256,14.983961697052814,-57.86594196485564,135.89904239065137,-48.196786037756326,22.67334579460966,-3.947324248956632,6.066042892568824,-13.60532639269696,4.585528610270446,1.2038200476305665,250.00000003076275,127.77777779349708,855.5555556608742,94.4444444560504,344.44444448681315,427.7777778304153,300.0000000369182,N
101_115,35288,97897.22223427112,97980.5555676147,98022.22223428651,98072.22223429264,98316.6666787672,16.708110431590768,-61.77461866885074,151.90436277855747,-53.97738270146483,14.874800449457046,-3.352316776806422,0.9808876756020528,-10.91381751520406,6.416474464548509,1.335466041490957,244.44444447456044,125.00000001539593,861.1111112170911,91.6666666779347,336.11111115249514,419.4444444960827,294.4444444806868,N
101_116,35598,98752.77778993198,98838.88890105368,98883.3333455036,98936.11112328788,99183.33334554052,15.88915223697082,-47.46409843156048,114.25639990855868,-42.46292769262419,12.94490390768954,-1.6299130164667306,1.4186043659049083,-13.311770749317429,6.384247390999459,-1.8814879209192568,247.22222225264704,130.55555557162734,872.2222223295539,97.22222223419521,344.44444448684226,430.55555560854555,300.0000000369182,N
101_117,35912,99616.66667892718,99708.33334560512,99755.55556783316,99805.55556783931,100061.11112342634,18.630146254892765,-46.5584880644296,119.33445547660332,-43.70467080650022,11.66626900518229,1.4985807501183392,-0.2175310363205868,-9.197948661691678,2.649656943571366,-5.180763039880497,255.55555558702326,138.88888890597445,847.2222223265271,97.22222223419521,352.7777778212185,444.4444444991532,305.5555555931787,N
101_118,36217,100461.11112347557,100555.55556793165,100602.77779015969,100650.0000123877,100894.44445686224,17.382034159105014,-51.24504895030167,134.15996253880942,-50.29140499348664,11.519795911744788,-1.7988375154615552,-1.3035435212938942,-6.014762193819878,3.743364157213517,-2.6367756224814487,244.4444444745459,141.66666668411926,866.666666773308,94.4444444560504,338.8888889305963,433.3333333866758,291.66666670255654,N
101_119,36529,101336.11112358326,101425.00001248308,101469.444456933,101519.44445693916,101763.88890141368,17.804160775648434,-54.63056896312046,135.5088284729364,-50.653286664874486,11.00571461976066,2.5739652359726946,1.6616104816845925,-6.531923630267959,-0.2628826084919967,-5.96478092097368,244.44444447451679,133.3333333497285,855.5555556608451,94.44444445607951,338.8888889305963,427.7777778304153,294.4444444806868,N
101_120,36837,102197.22223480036,102280.55556814394,102325.00001259384,102377.77779037812,102608.33334596206,16.224341663213536,-54.78360317822315,131.07749912072595,-48.40264971321673,11.919573423671077,2.7098651888978065,5.412364988484969,-10.7508187555758,3.4707368014596973,-1.251370851228504,230.55555558393826,127.77777779348253,844.4444445483969,97.22222223418066,327.7777778181189,411.1111111617065,283.333333368224,N
101_121,37141,103036.11112379248,103125.00001269233,103169.44445714224,103219.4444571484,103447.2222349542,17.288887920087955,-49.50216377119618,118.4672125330658,-44.317965300499445,12.901238327368269,-4.331978562088362,5.574464212550779,-14.680825599204288,7.87364786629765,1.2713250963552487,227.77777780579345,133.3333333497576,858.3333334389608,94.44444445607951,322.22222226187296,411.11111116172106,277.77777781196346,N
101_122,37450,103902.77779056584,103983.33334613129,104027.7777905812,104077.77779058737,104330.55556839624,20.56205041050972,-53.93709804155573,115.1369461830266,-43.69442152753276,10.195042784602771,1.9292209309934223,7.179467541023809,-13.76335935231432,3.888272988939477,-1.839981749247814,252.77777780887845,125.00000001535227,897.222222332668,94.44444445607951,347.22222226495796,427.77777783040074,302.77777781504847,N
101_123,37773,104786.11112400788,104883.33334624206,104925.00001291386,104977.77779069814,105238.88890184138,16.880483881492843,-50.43675972142604,106.605524792334,-41.38377165809582,7.426550778482486,-3.392122170929172,5.493456456402452,-17.3894762382093,8.374080024393905,-2.085898559108658,261.1111111432401,138.888888905989,905.5555556670006,94.44444445607951,355.55555559931963,452.7777778335003,313.8888889275113,N
101_124,38099,105694.444457453,105788.88890190909,105830.55556858086,105883.33334636514,106147.2222352865,16.373330268145416,-46.72368189431462,109.45631486079812,-40.35906980396348,9.39034793897932,2.853909482784452,7.902291616761018,-11.853648514795688,3.4684600258492435,-0.973950451767617,263.8888889213704,136.11111112785875,919.4444445576082,94.4444444560504,358.3333333774208,452.7777778335003,316.66666670564155,N
101_125,38430,106619.44445756685,106705.55556868856,106750.00001313847,106802.77779092274,107058.33334650975,18.51577922253396,-46.87141435171373,108.80579999818586,-41.53193962988343,9.11825136232224,0.2188021852257173,2.572524337339855,-12.189632083424016,1.7838088977067206,-4.025966474972855,255.5555555870087,130.55555557162734,883.3333334420458,97.22222223418066,352.7777778211894,438.8888889429072,308.3333333712799,N
101_126,38748,107500.00001323078,107591.66667990873,107633.33334658052,107686.1111243648,107925.00001328308,17.9892687471482,-43.54733474858767,103.0881579513393,-37.71629033565897,8.509891359521731,-2.1987069109873585,2.947784175504418,-15.251942896147476,7.137915894981736,0.1222365273361832,238.88888891827082,133.33333334974304,863.8888889952214,94.44444445607951,333.33333337435033,425.0000000522996,291.66666670255654,N
101_127,39059,108366.66668000411,108452.77779112585,108497.22223557574,108547.2222355819,108788.8889022783,18.095614784204358,-44.74637852793776,106.4843340450992,-38.81715876752535,8.30137521272595,2.683356691944068,6.601781476502825,-12.528155759596952,3.237853061240888,-2.2128279416851058,241.66666669640108,130.55555557162734,880.5555556639447,94.4444444560504,336.1111111524515,422.2222222741839,291.66666670255654,N
101_128,39376,109247.22223566804,109333.33334678976,109377.77779123969,109430.55556902394,109672.22223572036,16.72777955817699,-47.15871161349276,103.44868163366752,-39.82048405123253,9.955212938568597,-1.2392268389266852,2.6741158226145503,-15.871138860369074,6.509826927561883,-2.3496286384837384,241.66666669641563,130.5555555716419,877.7777778857999,97.22222223418066,338.8888889305963,425.00000005231414,294.44444448067225,N
101_129,39692,110122.22223577574,110211.11112467556,110255.55556912548,110308.33334690976,110555.5555691624,17.240233355195507,-44.37546024201488,98.7387307620676,-37.0001470793893,9.253104848442018,3.05890104025087,6.930307867142004,-16.029846819116642,5.058464307264116,-0.6105116110302894,247.22222225264704,133.33333334974304,891.666666776393,97.22222223419521,344.44444448684226,433.33333338666125,300.0000000369182,N
101_130,40013,111011.11112477403,111105.5555692301,111147.22223590188,111200.00001368616,111452.77779149506,16.302383831452893,-46.11486183314576,110.2447995695068,-39.353937588588536,10.892503004643642,-3.410853111017184,2.652452123119159,-12.292853570995716,6.595165922288882,-0.8295644761299754,252.777777808893,136.1111111278442,908.3333334451454,94.44444445606496,347.22222226495796,441.6666667210229,305.5555555931787,N
101_131,40340,111913.88890266292,112008.33334711898,112055.55556934702,112111.1111249094,112369.44445827456,17.632405713868973,-45.85102811327939,100.39754953054576,-39.58765928831692,13.03157119497987,2.918900938791901,6.572194827737073,-15.003400315424292,2.0174682292934865,-2.0682584492605587,258.3333333651681,141.6666666841047,730.5555556454638,102.77777779041207,361.11111115558015,455.5555556116451,313.8888889275404,N
101_132,40603,112666.66668053337,112775.00001388,112786.11112499249,112894.44445833916,112966.66668057028,2.7309139188690232,-8.012271418102978,-5.886353091822023,-26.63813584699266,111.7537160588433,3.2240049138706266,2.977336507388418,3.747360892623699,2.918053987342337,-16.877252772099116,72.22222223112476,119.44444445912086,180.55555557779735,119.44444445916452,191.66666669028928,300.0000000369182,180.55555557779735,~
101_133,40668,112827.77779166428,112922.22223612036,112966.66668057028,113019.44445835454,113261.11112505096,19.52208647248948,-44.68637861198952,111.7537160588433,-45.94805055439198,10.084900709908348,-2.6734907506861774,7.616776721409029,-16.877252772099116,7.292516070528583,-0.4775254343767937,241.66666669641563,138.88888890600356,600.0000000738364,97.22222223418066,338.8888889305963,433.3333333866758,294.44444448067225,N
101_134,40884,113480.5555695224,113536.1111250848,113566.66668064412,113602.77779175968,113819.444458453,10.103426115009198,-17.89915500044624,9.91354901590976,-12.338612768706668,121.7116878800416,0.7885147290866537,0.844549699129054,-2.82930720099356,0.652729579817634,-13.492547893065332,216.66666669331607,86.11111112171784,255.55555558699416,66.6666666748788,283.3333333681949,338.8888889305963,252.77777780887845,|
101_135,40976,113694.44445843762,113780.55556955934,113822.22223623111,113872.22223623728,114119.44445848992,12.31485115733107,-50.82575078124098,121.44543096606706,-43.18362113284637,15.781011671841672,-4.394032458807881,2.92346283998648,-13.789474369283695,7.2710008374917505,-2.500873157560572,247.2222222526325,127.77777779349708,802.7777778765885,91.66666667794925,338.88888893058174,425.0000000522996,297.2222222588025,N
101_136,41265,114502.77779187044,114580.5555696578,114625.0000141077,114677.77779189196,114897.22223636344,19.99091174751307,-56.22974042719137,127.29962456468591,-45.06070737214972,17.677797178512762,-3.4119408484712195,4.1862029142826485,-14.210991265329506,6.327116876845389,2.1294655738734227,219.44444447147544,122.22222223726567,772.2222223172721,97.22222223416611,316.66666670564155,394.4444444929977,272.22222225573205,N
101_137,41543,115258.333347519,115347.22223641882,115397.22223642498,115447.22223643112,115700.00001424,16.324191022768183,-47.32239675486736,124.8546892344036,-45.78438221332463,11.59239672140822,0.6143666401710126,5.109900195987321,-12.018965865315572,3.169200706491208,0.0318174232192668,252.77777780887845,138.88888890597445,794.4444445422268,100.00000001229637,352.7777778211748,441.6666667209938,302.77777781501936,N
101_138,41829,116055.55556983931,116147.22223651728,116191.6666809672,116244.44445875146,116488.888903226,18.338535760915843,-49.88719086248785,118.20507438762694,-43.75492577734767,16.15449683161105,1.6139370461482478,7.402518737175131,-12.991943270234191,3.471773816015063,-1.5689232882812223,244.4444444745459,136.11111112788785,280.55555559007917,97.22222223418066,341.66666670872655,433.33333338669036,297.2222222588025,N
101_139,41930,116341.66668098564,116402.77779210429,116472.22223655728,116558.33334767898,116880.55556994089,6.789621309647031,-9.68919583256985,8.18148576515964,-7.310544562940202,15.267027860426268,-2.0972190727659403,2.596785231752569,-3.432424083170929,0.6631011850383277,1.606293996021902,322.22222226190206,130.5555555716419,544.444444511435,155.5555555746978,477.77777783659985,538.8888889552472,408.33333338360535,~
101_140,42126,116880.55556994089,116969.44445884068,117016.66668106872,117063.88890329676,117313.88890332752,15.267027860426268,-54.95475784693901,135.02631974221603,-48.0032246295096,12.206671151548914,1.606293996021902,3.925984125074208,-10.340956532807724,0.9355827652737596,-6.877705323044656,250.00000003076275,136.11111112782964,819.4444445453264,94.44444445607951,344.44444448684226,433.33333338663215,297.2222222588025,N
101_141,42421,117683.33334781745,117788.888903386,117836.11112561404,117883.33334784208,118138.88890342908,13.05435250701919,-52.489105828005584,133.5907123987311,-47.80832066771008,12.413127719777458,-2.134880339338715,2.5740349070803643,-10.22658120377786,6.046080414021119,0.1352280017566589,255.55555558699416,152.77777779659664,813.8888889890513,94.44444445607951,350.00000004307367,455.55555561163055,302.7777778150339,N
101_142,42714,118502.77779236274,118602.77779237504,118650.0000146031,118697.22223683112,118944.44445908377,18.39792095696178,-48.582502417118256,124.84329229397892,-44.20044284711446,10.992103394352158,3.555148642574089,6.675083867111877,-12.161138787450186,2.847856313325701,-2.6157165257674424,247.22222225264704,147.22222224035067,766.6666667610261,94.44444445607951,341.66666670872655,441.6666667210229,294.44444448067225,N
101_143,42990,119277.77779245812,119369.44445913608,119416.66668136412,119463.88890359216,119705.55557028856,16.274131932329002,-46.63663526123548,117.26920185425764,-40.76186624700584,11.97072129805277,-3.51968822859562,1.1966504067671089,-9.036996237613868,5.931966161001288,0.2605407430945484,241.66666669640108,138.88888890600356,772.2222223172575,94.44444445607951,336.1111111524806,427.7777778304444,288.88888892444083,N
101_144,43268,120044.44445921916,120144.44445923148,120188.88890368138,120236.11112590942,120488.88890371833,13.220718367697208,-43.95725433025696,113.10382862409364,-42.85211999728903,9.64069747046046,3.447620119777014,4.5496234326480085,-7.872078933964869,0.72798431003014,-2.835338452507189,252.77777780890756,144.44444446222042,772.2222223172575,91.6666666779347,344.44444448684226,444.44444449916773,300.0000000369473,N
101_145,43546,120827.7777926489,120913.8889037706,120961.11112599864,121008.33334822668,121247.22223714498,15.189973273917154,-42.89446390336985,104.68491648152494,-36.72471476557213,11.461674540654792,-3.0669223632182536,2.047944269506436,-9.59863686333234,5.507843907778218,0.2474425713531511,238.88888891829993,133.3333333497285,750.0000000923174,94.44444445607951,333.33333337437944,419.4444444960682,286.1111111463397,N
101_146,43816,121575.0000149631,121666.66668164104,121711.11112609095,121761.11112609712,121988.88890390292,12.711627565567078,-42.49626068050269,108.26169974469953,-37.99376555752516,11.667069859858705,2.45410801569428,0.6666564456752357,-3.8678013476414255,-1.697533241721505,-6.749739282979189,227.77777780579345,136.11111112785875,775.0000000953878,94.44444445607951,322.22222226187296,413.8888889398222,277.77777781196346,N
101_147,44095,122344.44445950224,122441.66668173642,122486.11112618634,122538.8889039706,122777.7777928889,16.199517431792056,-48.52873316562794,112.72574592783016,-42.279773207021336,13.673531040906727,-3.7516025247086793,3.4401540125703045,-12.363376709965127,6.091125203332869,1.1498865428600589,238.88888891829993,141.6666666841047,811.1111112109356,97.22222223418066,336.1111111524806,433.33333338666125,291.66666670255654,N
101_148,44387,123152.77779293506,123250.00001516924,123297.22223739728,123347.22223740345,123605.55557076856,13.13967455816906,-51.769852957869055,125.7521315445088,-46.55425589583985,12.521281707786542,4.832152898271669,3.908091641475996,-6.322168972316912,0.878080329640736,-4.026289283177337,258.33333336510987,144.44444446222042,802.7777778765885,97.22222223420977,355.55555559931963,452.7777778335003,308.3333333712799,N
101_149,44676,123961.11112636788,124052.77779304584,124100.00001527386,124150.00001528002,124413.88890420138,16.050543222899393,-49.62635384073499,126.19425617618566,-46.49719163192219,15.27343467633989,-3.7076557100385887,-3.125580085640426,-6.291179800085883,5.632001055156749,-1.0628269442213292,263.88888892135583,138.888888905989,836.1111112140206,97.22222223418066,361.1111111555365,452.7777778335003,313.8888889275113,N
101_150,44977,124797.2222375819,124891.66668203796,124936.11112648789,124986.11112649404,125247.22223763728,16.189543047156718,-48.9379210576686,122.70726967444034,-48.632868724101215,13.01081040092857,0.225032819751387,6.827034662485117,-13.257146859858237,3.793246749548145,-11.71221982263729,261.1111111432401,138.888888905989,813.8888889890513,94.44444445607951,355.55555559931963,450.0000000553846,311.1111111493956,N
101_151,45270,125613.88890434908,125702.7777932489,125750.00001547694,125797.22223770498,126030.55557106702,18.97927124906179,-47.936395216335605,117.93675902900684,-43.68768115517482,12.940870902113287,2.9921133715042374,2.982316831581759,-8.583315364680676,-0.2704957446240023,-6.139161200834163,233.3333333620394,136.11111112785875,786.1111112078652,94.44444445607951,327.7777778181189,416.6666667179379,280.55555559007917,N
101_152,45553,126411.11112666942,126488.88890445676,126536.1111266848,126586.11112669096,126822.22223783113,20.584313903696398,-53.18023836934844,128.61061194020866,-48.505890674501664,16.01722093317927,2.082167989066622,-2.218799344450484,-6.0072102982083,0.918005318232682,-5.056584363800862,236.11111114016967,125.00000001538137,794.4444445422414,97.22222223419521,333.3333333743649,411.1111111617065,286.11111114632513,N
101_153,45839,127202.77779343352,127286.1111267771,127330.55557122704,127380.55557123316,127619.44446015148,19.144007027280395,-52.02591347180408,132.89524680407345,-46.62654875961414,11.319544370500113,-0.2776814387538255,-0.6233818119665243,-7.048924822126823,4.281695390540506,-2.5787903896210493,238.88888891832903,127.77777779352618,830.5555556577601,94.4444444560504,333.33333337437944,416.666666717967,288.88888892444083,N
101_154,46138,128022.2222379788,128113.88890465676,128161.1111268848,128208.33334911284,128461.11112692172,17.193901410847374,-55.96485694967895,144.46301325414777,-53.49245211494343,13.841543113489733,-0.6588489906931818,1.1404023237478014,-8.38451468897247,5.38042373342362,1.6864014429189516,252.77777780887845,138.88888890600356,838.8888889921363,94.44444445607951,347.22222226495796,438.88888894292177,300.0000000369182,N
101_155,46440,128863.88890474908,128955.55557142702,129000.00001587694,129050.0000158831,129316.66668258258,16.89391141773265,-54.6895487520625,139.22929530410562,-49.79110263647297,11.917603873687252,-1.7649442606232628,5.1741807022592,-13.12790275456594,6.720130364989774,0.3369018953985963,266.6666666994861,136.11111112785875,861.1111112171056,94.44444445607951,361.1111111555656,452.7777778335003,316.66666670564155,N
101_156,46750,129725.00001596616,129816.66668264412,129861.11112709405,129913.8889048783,130163.88890490908,17.236501434792075,-51.20768376309498,129.3885340976912,-47.39481805700565,11.736748957355816,-1.2012895043911695,6.940757905604366,-13.200333591997545,5.587729713416925,0.0783695478063396,250.0000000307773,136.11111112788785,861.1111112170765,97.22222223418066,347.22222226495796,438.88888894292177,302.7777778150339,N
101_157,47060,130583.33334940516,130677.7777938612,130722.22223831112,130769.44446053916,131025.00001612616,18.89958520149369,-49.81312583949872,129.2392120316424,-46.04833451865765,10.738935124335429,1.0696069414470653,6.378561363468974,-13.396737873446808,4.731701122359668,-1.0504458020158234,255.55555558699416,138.8888889059599,830.5555556577892,91.6666666779638,347.22222226495796,441.6666667209938,302.7777778150339,N
101_158,47359,131427.77779395352,131508.333349519,131552.7777939689,131602.77779397505,131850.0000162277,18.17496098343048,-46.60517450636521,115.11766067490166,-41.35718154413506,11.52863156158163,2.983297123597925,5.422183109823187,-10.666458095323485,2.4088681368638727,-1.6908250604447297,247.2222222526616,125.00000001539593,822.222222323413,94.4444444560504,341.666666708712,422.22222227419843,297.2222222588025,N
101_159,47655,132244.4444607207,132330.5555718424,132375.00001629232,132427.7777940766,132638.88890521368,27.326095668323536,-50.57289457225065,128.50391173178812,-43.806978235473366,18.246748000715964,3.2422473276283466,1.493462973593631,-2.487863355401623,0.3954222578478021,-3.270730585671241,211.11111113708466,130.55555557162734,802.7777778765885,97.22222223420977,308.33333337129443,394.44444449298317,263.88888892135583,N
101_160,47944,133044.44446081916,133136.1111274971,133177.7777941689,133230.55557195318,133458.333349759,17.436178441122713,-52.09063937145905,121.81188387376204,-44.07255808075212,12.830202971939215,1.5194325246704783,-1.4455063870728069,-4.048992145303216,0.4514874737646014,-4.038799395900178,227.777777805808,133.3333333497576,788.8888889859663,94.44444445607951,322.2222222618875,413.88888893983676,280.55555559007917,N
101_161,48228,133838.88890536138,133919.44446092684,133966.66668315488,134011.1111276048,134241.66668318873,18.759391786431767,-63.60264506826644,147.3521492624881,-50.16339927579864,14.683600948377649,-3.041063592444044,2.8550365893841225,-9.988054943207516,4.730339271191407,1.8920316410561424,230.55555558393826,127.77777779349708,802.7777778765885,91.66666667794925,322.2222222618875,402.77777782734483,275.00000003384775,N
101_162,48517,134647.2222387942,134725.00001658156,134769.44446103147,134822.22223881574,135080.55557218086,18.58585944133883,-57.62435692498955,127.38615578767306,-48.128593759541104,14.002805416757992,-4.456088205472499,8.086489617667905,-15.239677251492756,5.172984579242836,1.0257459393073456,258.3333333651244,122.22222223726567,844.4444445483678,97.22222223418066,355.5555555993051,433.33333338666125,311.1111111493956,N
101_163,48821,135480.5555722301,135572.22223890806,135613.88890557984,135669.44446114224,135930.5555722855,21.586953526315185,-65.49960867388097,134.8194304980676,-51.56417964015094,12.792064267630606,1.0975305421473358,4.993386693286946,-10.855071657765158,1.4572242370849864,-6.848596154682363,261.1111111432547,133.3333333497285,844.4444445483969,97.22222223418066,358.33333337743534,450.0000000553846,316.6666667056561,N
101_164,49125,136338.88890566907,136416.66668345642,136458.33335012823,136511.1111279125,136750.00001683077,18.051448644602488,-58.444198251317175,138.64120762679187,-51.5917939906566,13.224919826107572,-1.311777421999514,1.9427587661867447,-13.06003584650906,6.6186930055753965,0.1192450714891795,238.88888891827082,119.44444445916452,825.0000001015142,94.44444445607951,333.33333337435033,411.1111111617065,291.666666702542,N
101_165,49422,137147.2222391019,137244.4444613361,137283.33335022975,137336.11112801405,137561.11112804172,19.975451667271763,-62.91939685411026,138.97872950073338,-53.8960749448849,13.870086538259818,0.5097273196221119,9.153997450693597,-16.554563002380014,5.55702265409783,-1.5279427572408286,225.00000002767774,136.11111112785875,769.444444539171,91.66666667794925,316.666666705627,413.88888893983676,277.777777811978,N
101_166,49699,137922.2222391973,138011.1111280971,138052.77779476892,138102.77779477506,138336.1111281371,14.356086433459067,-62.14728468532935,135.5895412333522,-48.99126880383726,16.733741232292818,0.597058882468,1.177946120659522,-9.59529719002696,1.1309991454770445,-6.603053766989335,233.3333333620394,130.55555557162734,775.0000000953733,91.66666667794925,325.00000003998866,413.88888893980766,283.3333333681803,N
101_167,49978,138700.0000170708,138786.11112819248,138827.7777948643,138875.00001709233,139100.00001712,20.17618459315831,-60.56108624152841,148.0181620307725,-53.50909861138464,19.103150147659672,-4.969186161570848,2.294281081760858,-10.802075715392348,5.9934331559175,1.304894609038767,225.00000002767774,127.77777779349708,750.0000000923174,88.8888888998481,313.88888892752584,400.0000000492146,272.2222222557175,N
101_168,50248,139438.88890605062,139533.33335050667,139577.7777949566,139625.00001718462,139875.0000172154,15.187225712032662,-60.14469766888701,160.01764532908382,-57.48129163730359,18.340018017385574,2.4230507615376107,0.624879733382843,0.3967897227580749,-2.084583863045112,-5.064855633842795,250.00000003079185,138.888888905989,775.0000000953733,91.66666667794925,341.6666667087411,436.1111111647915,297.2222222588025,N
101_169,50527,140216.66668392412,140308.33335060207,140352.77779505198,140402.77779505812,140663.88890620138,13.593568108613075,-59.44849432204153,142.46891274173456,-45.09420071978965,16.696546605266885,-3.308264897536674,3.814302897049361,-5.232065796441419,1.905106741288552,1.7855959750312609,261.1111111432547,136.11111112785875,802.7777778765885,94.4444444560504,355.5555555993051,447.22222227725433,311.1111111493956,N
101_170,50816,141011.11112846635,141108.33335070053,141155.55557292857,141205.5555729347,141458.3333507436,15.771386811485584,-58.46339358499013,129.33037574391034,-43.91745047083866,12.800227154039202,0.667427941802941,-3.7298777223624606,-3.0951523080406336,3.144875131062591,-2.983718067856155,252.777777808893,144.44444446222042,827.7777778796444,97.22222223418066,350.00000004307367,447.22222227725433,302.7777778150339,N
101_171,51114,141847.22223968036,141938.8889063583,141983.3333508082,142033.33335081438,142283.33335084515,15.958369161126411,-64.9775517627835,146.93399176161438,-52.59650149158247,13.354555866648376,-0.6402084967121724,2.528764070853705,-3.3605263943911403,1.0154861218466071,0.3971021898572555,250.00000003076275,136.11111112785875,794.4444445422268,94.44444445607951,344.44444448684226,436.1111111647915,300.00000003693276,N
101_172,51400,142638.88890644445,142733.33335090053,142777.77779535044,142833.33335091284,143075.00001760924,21.772015086801407,-66.7952345674842,149.60479801567266,-55.04647957332287,9.424212427312128,0.0689797241546713,-0.6309419241087767,-5.917919780314954,4.134709436228515,0.2680188937654024,241.66666669640108,138.888888905989,797.2222223203571,100.00000001231092,341.666666708712,436.1111111647915,297.2222222588025,N
101_173,51687,143436.1111287648,143530.55557322086,143575.0000176708,143625.00001767694,143872.2222399296,18.58846906128135,-65.27087784802896,153.9258776975126,-57.07678231800408,17.12907859631745,4.40248672140138,3.2608398091094317,-2.720807104780941,-1.5630103498866796,-4.581470645710267,247.2222222526616,138.888888905989,772.222222317243,94.44444445607951,341.6666667087411,436.1111111647915,297.2222222588025,N
101_174,51965,144222.22223997267,144302.77779553813,144347.22223998804,144400.0000177723,144638.8889066906,17.387525215049767,-59.1467845677638,143.64205700943432,-52.51561842579154,11.575146107470344,-3.325579468742952,3.7438515878586593,-8.985824636297686,4.3129792288090645,2.2330060296941787,238.88888891829993,125.00000001536682,761.1111112048093,97.22222223418066,336.1111111524806,416.6666667179379,291.6666667025711,N
101_175,52239,144983.33335117745,145066.66668452104,145108.33335119285,145158.333351199,145386.1111290048,18.317622802845385,-50.17124214564269,126.10675991477902,-44.09736194173847,11.385875121492584,2.606616942391112,3.100984989047912,-2.429904313179973,-2.522388418462687,-5.842821726557927,227.777777805808,125.00000001539593,758.3333334266499,91.66666667794925,319.44444448375725,402.77777782734483,277.7777778119489,N
101_176,52512,145738.888906826,145822.2222401696,145866.6666846195,145916.66668462567,146150.0000179877,16.959435210435117,-43.88890213578463,99.15727868236496,-36.805246664055865,10.821179328834464,-3.8280476572256905,5.158578844646965,-14.437513432733809,6.629191561116281,-1.6607322303814156,233.3333333620394,127.77777779349708,783.3333334297349,94.44444445607951,327.7777778181189,411.1111111617065,283.3333333682094,N
101_177,52794,146516.6666846995,146605.55557359933,146650.00001804924,146700.0000180554,146941.6666847518,15.64252881645699,-49.89088595608289,110.51088640699932,-40.146753275349006,9.128731329575013,2.2967603244452155,-0.2423107220118871,-6.490064826423164,0.8452574901856467,-5.1131778803950185,241.66666669640108,133.3333333497285,813.8888889890804,94.44444445607951,336.1111111524806,425.0000000522996,291.6666667025711,N
101_178,53087,147336.1111292448,147419.4444625884,147463.88890703832,147516.6666848226,147766.66668485335,14.038128418563952,-52.89187432156221,122.6808816284228,-42.461648169013344,9.2149648913322,-5.569273195356756,4.928356152614817,-12.554524142150932,5.26612324916096,0.4389961422929979,250.00000003076275,127.77777779352618,816.6666667671816,97.22222223418066,347.2222222649434,430.5555556085601,302.7777778150339,N
101_179,53381,148136.11112934328,148238.8889071337,148280.5555738055,148333.33335158977,148611.11112940172,17.342407306066885,-55.02814470434909,123.213540073043,-43.71745043709859,7.268130043333885,1.2289903173991532,0.2619771273283581,-6.848770455131487,3.086299342298667,-4.435792974689501,277.7777778119489,144.44444446222042,794.4444445421977,94.44444445607951,372.2222222680284,475.0000000584405,330.5555555962201,N
101_180,53667,148941.66668499797,149033.33335167592,149075.0000183477,149127.777796132,149383.333351719,14.638782191025488,-52.50869236950724,116.38395688778728,-40.8454939025924,9.647739317217576,3.189188622661653,4.173448049924613,-5.795343168887943,0.0367980706780313,-3.583990120562332,255.55555558699416,133.3333333497285,777.7777778735035,94.44444445607951,350.00000004307367,441.6666667210229,308.33333337129443,N
101_181,53947,149725.0000184277,149805.5555739932,149852.7777962212,149905.5555740055,150158.33335181436,14.761429828414736,-43.5316857318839,107.18939319458516,-37.09290249380423,7.005836870608335,-3.247526778059316,4.267827514453723,-11.375649474291938,4.918692818628843,1.203378573481664,252.7777778088639,127.77777779349708,761.1111112048093,100.00000001231092,352.7777778211748,433.33333338666125,305.5555555931642,N
101_182,54221,150488.8889074106,150569.4444629761,150613.888907426,150663.88890743215,150902.77779635045,14.799548511302984,-48.15309819035448,106.39194324507504,-37.53565876607117,10.43965238049156,2.360646297327805,0.417170788582587,-5.194784614725969,-0.930707155585906,-4.497173511323009,238.88888891829993,125.00000001539593,822.222222323413,94.4444444560504,333.33333337435033,413.88888893983676,288.88888892444083,N
101_183,54517,151302.77779639966,151394.4444630776,151436.11112974942,151491.66668531182,151725.00001867386,12.820159887298454,-51.51017849433484,114.07949846869202,-40.303030550381614,8.08629018930849,-3.22678558615382,1.836719927339149,-9.916491452006731,5.295094153440655,0.3642883847831399,233.3333333620394,133.3333333497576,825.0000001015433,97.22222223420977,330.5555555962492,422.22222227419843,288.88888892444083,N
101_184,54814,152122.22224094498,152219.44446317916,152261.11112985096,152311.1111298571,152530.55557432855,14.075240114711368,-47.38749427951529,112.13632607532192,-40.7993789236499,8.325517589000665,-1.7341220597859182,6.433088791512697,-13.35173934212783,4.382338240348629,-2.6068088399615736,219.44444447144633,138.888888905989,813.8888889890513,91.66666667794925,311.1111111493956,408.33333338357625,269.44444447758724,N
101_185,55107,152941.6666854903,153033.33335216824,153075.00001884002,153125.00001884616,153377.77779665505,14.255388792352823,-56.765013484077016,134.98023796455,-49.88824301591571,10.583391763035186,3.290983884346052,2.3016216292494898,-3.73553591733158,-1.0731208809871409,-4.294773402298747,252.777777808893,133.3333333497285,827.7777778796735,91.66666667792015,344.44444448681315,436.1111111647624,302.7777778150339,N
101_186,55405,153777.7777967043,153858.33335226975,153902.7777967197,153947.2222411696,154005.5555745101,16.250094499989544,-70.01704030441483,168.97618846619395,-71.03753482462135,16.115380079227148,-3.671434481464022,1.1552148370113398,-3.905604275886373,2.413520205652232,-0.4734434050721534,58.33333334050258,125.00000001539593,847.2222223264689,88.8888888998481,147.22222224035067,227.777777805808,102.77777779041207,N
101_187,55710,154616.66668569643,154705.55557459625,154750.00001904616,154802.77779683046,155052.77779686122,15.880304583229613,-61.494216238910106,140.42747426400686,-51.03613851667875,11.619022857495557,3.091450327496393,4.044389351300401,-3.7787987656831774,-0.8732937607853393,-3.796785046930769,250.00000003076275,133.3333333497285,836.1111112140352,97.22222223420977,347.2222222649725,436.1111111647915,302.777777815063,N
101_188,56011,155450.00001913233,155541.66668581028,155586.1111302602,155636.11113026633,155869.4444636284,13.828718540722768,-57.62766571681965,139.3887207448941,-51.72774851930143,10.76154401522939,2.4103094864820944,-1.460924386963004,-3.6589501225628767,-0.6740007378790284,-3.2164409161876653,233.33333336206852,136.11111112785875,822.222222323413,94.4444444560504,327.7777778181189,419.4444444960682,283.3333333682094,N
101_189,56307,156283.3333525682,156363.8889081337,156408.3333525836,156458.33335258975,156686.11113039558,17.166084323018044,-61.029678523683486,143.0806018861373,-52.13591752337667,14.659427011662128,-1.6537440646597934,-4.557508897095449,-2.123678448715673,0.7655840736662733,1.28228325134026,227.7777778058371,125.00000001539593,833.3333334359049,94.4444444560504,322.2222222618875,402.77777782737394,277.777777811978,N
101_190,56607,157116.66668600412,157197.2222415696,157241.6666860195,157294.44446380378,157522.2222416096,16.509217774419422,-60.04158678446656,140.32737940892665,-50.72381521150621,13.865425353978978,-0.8072574043713725,-4.646350356605135,-1.434024309648575,0.5001361879600891,-0.3340161489590539,227.777777805808,125.00000001539593,863.8888889952214,97.22222223418066,325.00000003998866,405.5555556054751,280.55555559007917,N
101_191,56918,157972.22224166495,158061.1111305648,158105.55557501473,158158.333352799,158400.0000194954,16.892042264049675,-61.45007221234838,138.83097491431974,-50.010591836623554,11.83626472096666,8.354976975655479,-1.8143383755740312,0.3184673933029827,-4.726259190744612,-6.8434446779231415,241.66666669640108,133.3333333497867,927.7777778919553,97.22222223420977,338.88888893061085,427.77777783045894,294.44444448067225,N
101_192,57252,158902.77779733506,158991.66668623488,159033.3333529067,159088.8889084691,159336.11113072172,12.10196520801188,-61.77915898555418,138.24985919087092,-51.0125624724866,12.729811418732025,-3.680270968649354,7.256776025847675,-10.44369363863537,4.503607896380942,-3.536284429718635,247.2222222526325,130.55555557162734,944.4444445606787,97.22222223420977,344.44444448684226,433.33333338666125,302.7777778150339,N
101_193,57592,159827.7777974489,159933.33335301746,159977.77779746737,160030.55557525164,160286.11113083866,13.02232253931624,-62.3952948207543,140.71464444717233,-52.74956112811999,11.76797918123612,-5.507502198208529,-2.2715827218245543,-5.34950982593443,2.9468590091983966,0.3238617509208987,255.55555558702326,150.00000001845183,933.3333334482159,97.22222223418066,352.7777778212039,458.33333338974626,308.33333337129443,N
101_194,57928,160775.00001978772,160866.66668646567,160911.11113091558,160963.88890869985,161216.66668650875,14.02443502907871,-58.37211482684808,133.15714943124942,-48.29752451984133,10.799494860227153,5.924056624163379,4.864879109213764,-4.732352117115224,-4.740011482009081,-7.421898012600031,252.777777808893,136.11111112785875,880.5555556639156,97.22222223418066,350.00000004307367,441.6666667210229,305.5555555931642,N
101_195,58245,161658.33335322977,161747.2222421296,161791.6666865795,161841.66668658567,162086.1111310602,15.026355086559638,-50.74879292286891,122.63553336991896,-44.48442004252068,12.47834278359078,2.1409424359034444,7.850563973111966,-6.486581697374258,-3.7473955070305087,-7.307712235361558,244.44444447453134,133.3333333497285,825.0000001015433,94.44444445607951,338.88888893061085,427.77777783042984,294.44444448070135,N
101_196,58542,162483.3333533313,162569.444464453,162616.66668668104,162663.88890890908,162911.1111311617,16.17374319352199,-57.29424762803847,140.06051487395573,-50.69397484281432,12.204677711267031,8.313584381113149,-3.1707510364224305,2.9368079323777847,-4.066362593732755,-6.135241025043284,247.2222222526325,133.3333333497285,841.6666667702666,94.44444445607951,341.666666708712,427.77777783040074,294.44444448067225,N
101_197,58845,163330.55557565778,163413.8889090014,163458.3333534513,163511.11113123558,163758.3333534882,14.327537669695236,-58.93309211807206,136.9467903164123,-50.41347421474916,13.505500372321697,2.9206884809449347,-4.652023025665076,1.1900781540421386,-1.00850766382363,-2.860641208090981,247.2222222526325,127.77777779352618,891.6666667764075,97.22222223418066,344.44444448681315,427.77777783042984,300.00000003690366,N
101_198,59166,164219.4444646561,164305.5555757778,164350.00002022772,164402.777798012,164655.55557582088,15.933365503875246,-60.102542262083325,139.12671484075855,-50.92329711363047,10.572295469450228,6.095393227178098,3.759000718921536,-3.935122981010736,-3.923404189027804,-7.574109277611605,252.777777808893,130.55555557162734,900.0000001107692,97.22222223418066,350.00000004307367,436.1111111647915,305.5555555931642,N
101_199,59490,165102.77779809813,165205.55557588855,165250.00002033848,165300.00002034465,165547.2222425973,13.589437621412634,-53.09975044846364,127.02059493180354,-46.90649904695805,9.896387645202015,4.135682505624268,10.557342884544076,-9.281589968803363,-2.2292606135327677,-6.297208615162394,247.2222222526325,147.22222224035067,922.2222223357239,94.44444445610861,341.6666667087411,444.4444444991532,297.2222222588025,N
101_200,59822,166030.55557599012,166127.7777982243,166172.2222426742,166222.22224268035,166483.3333538236,14.353756525572951,-60.96979647878612,141.69516108159743,-52.11270273985375,11.12485434508364,-3.5778752167356167,2.4052059605144325,-10.130346463788827,8.206070492501029,6.225933466163171,261.1111111432547,141.66666668409016,927.7777778919553,94.4444444560504,355.5555555993051,452.77777783348574,311.1111111493956,N
101_201,60156,166961.1111316602,167055.55557611625,167100.00002056616,167152.77779835043,167400.0000206031,13.954802192914595,-59.3660007462985,138.15423196160873,-51.00322065775478,11.284989383623577,-5.867879731585768,-1.8396559254003555,-7.607864955901635,4.881188999215745,3.437398210748384,247.2222222526616,138.8888889059599,891.6666667764075,97.22222223418066,344.44444448684226,438.88888894289266,300.00000003693276,N
101_202,60477,167855.5555762147,167947.22224289266,167991.66668734257,168041.66668734874,168272.22224293268,14.863094765940968,-53.89465909340491,121.06658067749792,-44.55246820769023,11.214067948890223,-0.3318699214293417,-4.06903792065814,-1.4698217669220393,0.7624541150529459,-0.5703298442149602,230.55555558393826,136.11111112785875,852.7777778827585,94.44444445607951,325.00000004001777,416.666666717967,280.55555559010827,N
101_203,60784,168711.11113187557,168802.77779855352,168844.44446522533,168897.2222430096,169127.7777985935,15.00983712305846,-49.63190845556917,116.1665972915108,-41.91031216938338,9.612499469738824,6.484448151110528,-3.3036209428484145,1.5761771640928677,-3.108350388398777,-4.773479253337472,230.55555558390915,133.3333333497576,847.222222326498,94.44444445607951,325.00000003998866,416.6666667179379,283.3333333681803,N
101_204,61089,169547.22224308958,169647.2222431019,169691.66668755183,169741.66668755797,169977.77779869814,13.501626753854303,-49.380391714647565,124.15013370091988,-45.03079557330129,12.599101781101025,-1.0047247710343743,-5.219768767238624,1.9623600160760195,-0.7159491493708985,-1.518668886028653,236.11111114016967,144.44444446224952,850.0000001045992,94.44444445607951,330.5555555962492,430.5555556085601,286.1111111463106,N
101_205,61395,170400.00002097234,170497.22224320652,170541.66668765643,170591.6666876626,170847.2222432496,13.674637671337162,-57.48379104680484,142.05952728053342,-51.73558731460975,11.904447759583697,-6.074542492874273,-1.686924222575033,-8.200374358770643,8.130548300917736,6.5524030970313545,255.55555558699416,141.66666668409016,922.2222223357239,94.44444445607951,350.00000004307367,447.22222227725433,305.5555555931642,N
101_206,61727,171325.00002108616,171419.44446554224,171463.88890999215,171516.66668777642,171780.5555766978,13.062150938351552,-62.66475059456053,137.72515014321542,-50.5688541584766,11.18871232963938,-5.770079736430619,0.0823052933191024,-11.466997392941412,8.80169771024705,6.235786888492642,263.88888892138493,138.888888905989,919.4444445576228,97.22222223418066,361.1111111555656,455.5555556116451,316.6666667056561,N
101_207,62058,172236.11113230942,172338.88891009983,172383.33335454977,172436.11113233404,172691.66668792104,12.217018295903898,-52.31677622350505,121.35719942615648,-42.81268534228697,11.222825805663962,-5.879050971931698,2.449382121315766,-15.284148237350012,10.732824968118996,5.785187444134975,255.55555558699416,147.22222224035067,836.1111112140061,97.22222223420977,352.7777778212039,455.555555611616,308.3333333712653,N
101_208,62359,173086.11113241402,173177.77779909197,173219.44446576378,173272.22224354805,173505.5555769101,13.85212543288134,-57.560523620839255,137.23632838758795,-50.14296725464898,12.1136059296644,6.995192127833033,0.1298840214940033,0.8321369104137439,-5.422083076276804,-5.618326430860368,233.3333333620394,133.3333333497576,869.4444445514528,94.44444445607951,327.7777778181189,419.4444444960682,286.1111111463106,N
101_209,62672,173952.77779918737,174044.44446586532,174088.88891031523,174141.6666880995,174388.88891035217,14.432499442677718,-58.76499461793521,132.81946803984258,-48.7144363462893,12.967329209078937,7.378026606456424,-3.768567478589358,2.118211821732072,-2.75477174956351,-3.8551242823828593,247.2222222526616,136.11111112785875,894.4444445545378,97.22222223418066,344.44444448684226,436.1111111647915,300.00000003693276,N
101_210,62994,174855.55557707627,174938.88891041986,174983.33335486977,175036.11113265404,175252.77779934736,15.73664230467364,-55.6136626848695,127.14744646913374,-47.32456858056436,140.68267138172388,8.533455736942143,-1.8526144188346303,0.8091742819503622,-4.5388229006887375,-35.79254273399394,216.66666669331607,127.77777779349708,283.3333333682094,97.22222223418066,313.88888892749674,397.2222222710843,269.44444447758724,N
101_211,63096,175105.55557710704,175183.3333548944,175266.66668823798,175300.0000215754,175372.22224380652,6.134098797123191,-19.98964075025475,88.16671350530493,-128.62796209815727,10.224740445142348,8.857324101358886,-2.858958494407674,-33.656601018296364,30.81580971193913,1.022340015897884,72.22222223112476,161.11111113094375,608.3333334081981,116.66666668100515,188.88888891212991,266.6666666994861,105.55555556854233,|
101_212,63315,175755.55557718704,175830.55557719627,175875.00002164618,175925.00002165232,176161.1111327925,4.198348262090571,-19.48669349631717,43.45620606584323,-15.412052216201456,145.77473263063192,5.728446839380966,-4.172966108150353,2.2004570394733998,-1.2223786121020632,-29.219339391735552,236.11111114016967,119.44444445913541,275.00000003387686,94.4444444560504,330.5555555962201,405.555555605446,286.1111111463106,N
101_213,63414,176041.66668833335,176113.88891056448,176150.00002168005,176233.3333550236,176622.22224396036,14.561137051299204,-142.7215075023035,115.7987790517208,-15.38021963318608,11.507888055699649,-1.5016586173305109,30.692141276002776,-13.522709856175322,-1.7466627542570456,-6.225799002650628,388.88888893675175,108.33333334670169,602.7777778519376,119.44444445913541,508.33333339588717,580.5555556270119,472.22222228031023,|
101_214,63631,176622.22224396036,176711.11113286018,176752.777799532,176805.55557731626,177052.7777995689,11.507888055699649,-48.74546822228552,108.0618054556178,-38.813936789326526,8.67013031638496,-6.225799002650628,0.9536143074179504,-14.607482424274204,8.671592005412005,6.734879494662903,247.2222222526325,130.55555557162734,933.3333334481867,94.44444445607951,341.666666708712,430.555555608531,300.00000003690366,N
101_215,63967,177561.1111329648,177641.66668853027,177686.11113298018,177738.88891076445,177988.88891079524,11.03420832286523,-51.66613180407517,114.20009225801712,-42.14780729276668,10.784539821034867,-5.714490664756121,0.2148949090181245,-13.76274983498628,7.980469939188071,7.155498803383911,250.00000003079185,125.00000001536682,902.7777778888994,97.22222223418066,347.2222222649725,427.77777783042984,302.777777815063,N
101_216,64292,178441.66668862873,178547.2222441973,178588.88891086908,178638.88891087522,178897.22224424037,10.76854291643602,-61.19766175638714,141.4274381836511,-49.842310275278,10.837726689948225,-2.360984533931375,3.814767315180255,-8.102884359874036,3.7453575042260527,-2.441143306586391,258.3333333651535,147.22222224035067,930.5555556700856,91.66666667792015,350.00000004307367,455.5555556116451,308.33333337129443,N
101_217,64627,179388.88891096754,179475.00002208925,179519.44446653916,179569.4444665453,179805.5555776855,12.792045334816878,-59.78752208980766,137.99655356383064,-50.22933676738657,9.497275090437991,-4.821837212011798,6.519201365433718,-9.365551244926031,5.440162513677002,-4.08613680143925,236.11111114019877,130.55555557162734,838.8888889921363,94.4444444560504,330.5555555962492,416.666666717967,286.1111111463397,N
101_218,64929,180225.0000221816,180313.8889110814,180358.3333555313,180408.33335553747,180636.11113334328,16.073263980618172,-56.64297307809002,141.9167033831023,-51.08884497725328,13.261863944855593,4.346043502403107,4.423895561371363,-2.0565302276474955,-5.241901160975326,-6.585662576685338,227.777777805808,133.3333333496994,877.7777778858144,94.44444445607951,322.2222222618875,411.1111111616774,277.777777811978,N
101_219,65245,181105.5555778455,181191.6666889672,181236.11113341711,181286.11113342328,181527.7778001197,14.87406656317397,-63.43670482946053,145.57854692956656,-53.29855213941294,10.122423672508573,-3.9820915089263433,8.652544553115595,-6.708190171439859,0.3598589127091974,-6.275276745027581,241.66666669640108,130.55555557162734,919.4444445575937,94.44444445607951,336.1111111524806,422.22222227419843,291.6666667025711,N
101_220,65576,182016.66668906875,182111.1111335248,182155.5555779747,182205.55557798088,182466.66668912413,12.754127435795082,-63.69578726275743,146.42786558786017,-53.92383131155575,9.99576817632173,-4.784442780682595,2.9708516773919795,-9.040662581690636,5.442719056106322,3.2357611361314675,261.1111111432547,138.8888889059599,916.6666667794925,94.44444445607951,355.5555555993342,450.0000000553846,311.1111111494247,N
101_221,65906,182927.777800292,183027.7778003043,183072.2222447542,183122.2222447604,183380.5555781255,15.284204608297626,-57.25018417585107,140.175976968507,-50.46071985561293,7.292348218363494,-4.01758693212716,2.2041856939635625,-11.321045126826911,8.883058764405687,1.5520153058040316,258.3333333650953,144.4444444621913,886.1111112202052,94.44444445610861,352.7777778212039,452.77777783348574,308.33333337129443,N
101_222,66225,183822.2222448465,183913.88891152447,183958.3333559744,184008.33335598052,184269.44446712377,17.472156315930192,-67.29280350813336,160.88948524887502,-58.03281931701683,8.911759621969576,-0.4699923496161484,6.929901652693109,-1.3698781173449757,-4.986374675141343,-10.742739715377647,261.1111111432547,136.11111112791696,941.6666667825193,94.4444444560504,355.5555555993051,447.22222227728344,311.1111111493665,N
101_223,66564,184761.11113385097,184858.33335608515,184900.00002275693,184950.0000227631,185219.4444672407,14.540883003100388,-65.40910360064785,159.73289958385897,-57.48549723070799,7.832104676500004,-3.2461571262658278,5.085422008357647,-3.165744778140325,-0.9333292387803472,-0.0659143863164694,269.44444447761634,138.8888889059599,905.5555556670879,91.66666667794925,361.1111111555656,458.33333338974626,319.44444448378636,N
101_224,66890,185666.666689518,185761.11113397405,185805.555578424,185852.777800652,186111.11113401712,16.46802085577898,-62.95390745770467,152.95259154970702,-54.745783036430566,7.437115219498692,-3.0342374701178483,3.949601867622816,-6.310555244372406,3.683829722676629,2.2554423071812755,258.3333333651244,138.8888889060181,855.5555556607724,91.66666667794925,350.00000004307367,444.4444444991241,305.55555559310596,N
101_225,67198,186527.77780073503,186619.444467413,186661.1111340848,186711.11113409096,186961.1111341217,16.882004072040303,-59.43751334449431,147.80578201275566,-48.535648877968505,8.791227440485498,3.126493720620134,6.266858125837269,-1.505305810870793,-5.278460287266562,-7.499367016554808,250.00000003073364,133.3333333497576,866.6666667733225,91.66666667794925,341.6666667086829,433.33333338666125,300.00000003690366,N
101_226,67510,187397.2222452865,187483.33335640823,187527.7778008581,187577.7778008643,187813.88891200448,17.21073094972827,-59.31370405439564,151.01383929698775,-54.08192895509948,9.35331120593938,4.204564104346419,3.921368384799561,0.1382884378565486,-5.937161760236287,-7.73849493171204,236.11111114016967,130.55555557159823,894.4444445545669,94.44444445607951,330.5555555962492,416.666666717967,286.1111111463688,N
101_227,67832,188288.8889120629,188377.7778009628,188422.22224541267,188472.2222454188,188725.0000232277,17.314976178300178,-64.5338496569188,155.49870917285818,-57.050882598616106,9.29266728099983,-2.438654479391104,6.453544255407344,-4.225589249671294,0.2343511036267856,0.8595440873246996,252.7777778089221,133.3333333497867,922.2222223357239,94.4444444559922,347.2222222649143,436.1111111648206,302.7777778150339,N
101_228,68164,189205.5555788424,189300.0000232985,189344.4444677484,189394.4444677545,189661.11113445403,15.101636264768246,-65.1100604952381,155.8370407511025,-55.50078755110315,8.173717986886015,-4.576959693915475,-0.3252995566420891,-5.378424731275636,4.463186614758192,3.6557294533949007,266.6666666995152,138.888888905989,947.2222223388089,94.4444444560213,361.1111111555365,455.555555611616,316.666666705627,N
101_229,68505,190158.33335673745,190250.0000234154,190291.6666900872,190344.44446787148,190597.2222456804,15.411650451782664,-56.85836926269604,133.26965517637237,-47.05711181864334,9.621330184328116,-6.447682060863403,-1.5220971673725328,-8.552822991625746,8.096343985041338,6.950319296317842,252.7777778089221,133.3333333497576,902.7777778888703,94.44444445607951,347.2222222650016,438.88888894295087,305.5555555931933,N
101_230,68830,191050.00002351383,191152.7778013043,191194.44446797608,191244.44446798225,191483.33335690052,14.249091876519005,-57.71456384968409,145.65840046873515,-52.64976861701936,11.719011810804236,-3.2296842583366616,1.116773703767447,-8.200708394956797,6.33359823356173,0.02580021526594,238.88888891827082,144.44444446224952,850.0000001046283,91.66666667794925,330.5555555962201,433.33333338669036,288.88888892444083,N
101_231,69136,191911.11113473092,192000.0000236308,192044.4444680807,192094.44446808685,192325.0000236708,13.292730362501125,-57.20122465536337,143.38517157569706,-52.51148319502484,12.993093658547666,0.7736684989988579,5.94984728727827,-2.306479141616427,-4.694701616565976,-7.066165707008483,230.55555558393826,133.3333333497867,861.1111112170911,94.4444444560504,325.00000003998866,413.88888893986586,280.55555559007917,N
101_232,69446,192775.00002372617,192861.1111348479,192905.5555792978,192955.55557930397,193188.888912666,16.03614749483536,-61.37231436922883,146.732218149385,-53.12726899380936,14.190287019494887,2.4126714784652896,5.7021990366787625,-1.9397431101181384,-5.121969955798324,-7.386852664338187,233.3333333620394,130.55555557162734,863.8888889952505,94.44444445607951,327.7777778181189,413.88888893983676,283.3333333682094,N
101_233,69757,193638.8889127214,193727.7778016212,193769.44446829305,193822.2222460773,194061.1111349956,14.388841594564775,-62.38352392823231,147.10002510186914,-51.20788999445007,14.180993377870315,4.920461420819152,0.3584194378238682,3.485338683946773,-5.530151717373409,-5.170062227941062,238.88888891829993,130.55555557165644,902.7777778888412,94.44444445607951,333.33333337437944,422.22222227419843,291.666666702542,N
101_234,70082,194527.77780171967,194627.777801732,194672.2222461819,194725.0000239662,194977.77780177505,13.738018831931877,-61.86185809573441,146.63397708596804,-52.85449003294179,11.841452477215244,8.343818348697726,-1.8225960606632103,3.813009244266971,-4.674370477897579,-5.24076394783205,252.7777778088639,144.44444446222042,930.5555556701147,97.22222223418066,350.00000004304457,450.0000000553846,305.5555555931642,N
101_235,70417,195452.77780183352,195561.1111351802,195602.777801852,195655.55557963628,195913.8889130014,13.65160696082153,-62.31114924094248,147.44427792510908,-53.19576802750246,11.495621017499804,8.744965096345975,2.521942783149219,1.3940542617053262,-4.848440419716176,-4.491018111536376,258.3333333651244,150.00000001848093,930.5555556700856,94.44444445607951,352.7777778212039,461.1111111678765,311.1111111493956,N
101_236,70752,196388.88891305984,196488.88891307212,196533.3333575221,196583.33335752823,196844.44446867149,14.782411217542869,-60.11017276180734,145.99622350515818,-53.7501495451715,10.546557832840358,6.761576139084895,2.461392529614535,-0.3002440776621894,-5.365780772681318,-7.257438185565245,261.1111111432547,144.44444446224952,933.3333334481867,94.44444445610861,355.5555555993633,455.5555556116451,311.1111111493956,N
101_237,71088,197322.22224650808,197422.2222465204,197466.66669097028,197516.66669097645,197763.88891322908,13.891598084583348,-54.78717886554816,129.26540340199097,-47.87864094351789,9.97876907957427,2.477451024456392,9.331235522545336,-6.952076186484337,-4.189430153732416,-7.746288298795426,247.2222222526325,144.4444444621913,866.6666667733225,94.4444444560504,341.6666667086829,441.6666667209938,297.2222222588025,N
101_238,71400,198200.00002439387,198288.8889132937,198333.3333577436,198383.33335774977,198625.00002444617,15.173197951507232,-56.15762411213561,142.59356622030216,-52.80442821669934,15.384935739029384,8.632886939425068,-2.403390226461321,3.1709640868030493,-4.964234099508047,-4.317148064303563,241.66666669640108,133.3333333497285,861.1111112171202,94.44444445607951,336.1111111524806,425.0000000522996,291.6666667025711,N
101_239,71710,199063.8889133891,199150.0000245108,199194.44446896072,199244.4444689669,199480.55558010703,17.390760778597443,-61.52890325713822,149.8671559958355,-54.58251640116366,14.9044055286755,8.456062018916482,-2.77475967350761,4.601617919214402,-6.811454680178915,-5.5595891453874975,236.11111114014057,130.55555557162734,863.8888889951922,94.44444445607951,330.5555555962201,416.6666667179379,286.1111111463106,N
101_240,72021,199925.00002460615,200013.888913506,200058.3333579559,200108.33335796208,200355.5555802147,16.10447744418508,-63.11887196265173,156.46380454456835,-57.30264069545095,14.83076976557253,7.930997552293349,-2.301287467691604,3.576147355132854,-5.186939370550318,-4.774398956487673,247.2222222526325,133.3333333497576,913.8888890013623,94.44444445607951,341.666666708712,430.5555556085601,297.2222222588025,N
101_241,72350,200838.88891360757,200927.77780250736,200972.22224695727,201019.4444691853,201280.55558032857,15.263571978937112,-64.71288067257711,156.8689787948141,-57.65724326305006,13.306597855031423,2.910882963170234,4.082797274619605,-0.1966515946485535,-5.62807844577345,-6.143203619531258,261.1111111432547,133.3333333496994,916.6666667795216,91.66666667794925,352.7777778212039,441.6666667209938,308.33333337129443,N
101_242,72680,201747.22224705268,201844.4444692869,201888.8889137368,201936.1111359648,202208.3333582205,14.811154018982972,-60.468384954773256,149.47618550926734,-55.87043880798043,14.434190412039174,8.377320221536705,-0.2735323627738357,1.0951535494865483,-3.291885223511805,-5.623318207291148,272.2222222556884,141.66666668411926,894.4444445545087,91.66666667792015,363.88888893360854,461.1111111678183,319.44444448369904,N
101_243,73002,202650.0000249416,202738.8889138414,202783.3333582913,202830.5555805193,203086.11113610637,16.113800569622406,-63.79249672071698,171.050336329815,-60.99500576421289,15.02106781498738,-2.904787271680269,-4.688988357936861,-0.471440913715374,3.6852359797040526,3.886454857534434,255.55555558705237,133.3333333496994,847.222222326498,91.66666667792015,347.2222222649725,436.1111111647624,302.777777815063,N
101_244,73307,203494.44446948997,203586.1111361679,203630.5555806178,203677.77780284584,203916.6666917641,16.05763443044771,-70.09642054986489,174.8506410799587,-64.00301778834762,18.3140163955738,-0.777978035859154,8.225346208927647,-3.0530073854126853,-2.420549152412546,-5.340729250553193,238.88888891827082,136.11111112782964,813.8888889890513,91.66666667794925,330.5555555962201,422.2222222741402,286.1111111463106,N
101_245,73600,204313.88891403523,204400.0000251569,204444.44446960685,204494.44446961305,204738.88891408755,17.992594071571077,-71.5068043991355,177.05352515863723,-66.23550445609305,17.151200652936907,8.431754618117411,-4.308372920917751,6.783894210925416,-4.368867774734306,-4.202061289554376,244.44444447450223,130.55555557162734,866.6666667733516,94.44444445613772,338.88888893063995,425.0000000523287,294.44444448070135,N
101_246,73912,205177.77780303045,205266.66669193027,205311.1111363802,205361.11113638635,205608.333358639,13.965308144167688,-71.2460719464592,175.36660375386353,-65.23524190159043,16.7334172511772,2.6348010333020278,-6.437547769309411,4.026136165240554,-0.6343972042714016,1.2131148832927487,247.2222222526616,133.3333333497576,880.5555556638865,94.44444445607951,341.6666667087411,430.5555556085601,297.2222222588025,N
101_247,74229,206058.3333586944,206147.2222475942,206191.6666920441,206241.6666920503,206494.44446985915,15.666792141020093,-66.92548890657152,167.82275530949823,-63.28288627980393,15.957539616070504,-0.2462031970947663,-4.816729738109978,0.8200339034627855,0.905339469715254,1.9806277056159312,252.7777778088639,133.3333333496994,908.33333344516,94.44444445607951,347.2222222649434,436.1111111647624,302.777777815063,N
101_248,74556,206963.8889143614,207055.5555810393,207100.00002548925,207152.77780327352,207413.8889144168,15.44401445251219,-68.75970131205099,166.49054380848074,-60.33000882203757,15.130703902267893,3.7348418097645433,-5.514007880990991,4.195813620779718,-1.1202182162698358,-0.1121444189744242,261.1111111432838,136.11111112785875,944.4444445607078,97.22222223420977,358.33333337749355,450.0000000554137,313.88888892755494,N
101_249,74896,207897.2222478096,208000.0000256,208044.44447004996,208094.4444700561,208358.33335897743,14.589098747493624,-63.16535099861984,158.1156338214929,-58.18575013465395,15.293894403287032,5.332911658225125,-5.055380575410335,5.425107046710727,-1.2629245860309817,-1.4824066077382752,263.8888889213267,147.22222224035067,880.5555556639156,94.44444445610861,358.33333337743534,461.1111111678183,313.88888892746763,N
101_250,75213,208783.33335902976,208880.555581264,208925.00002571387,208975.00002572,209241.6666924195,15.039997680074675,-66.92513538296899,166.17903865683311,-60.742524224612254,15.611417755292509,-6.391410328121981,-1.7807372567548714,-6.664907712478587,8.731345251414227,7.717445728609496,266.6666666995152,141.66666668411926,900.0000001107692,94.4444444559922,361.1111111555074,458.33333338974626,316.666666705627,N
101_251,75537,209691.6666924749,209780.55558137476,209825.00002582464,209872.22224805268,210125.00002586155,15.30947735807351,-67.09782196043919,163.78872007704436,-59.643298059293066,16.59868023891404,-6.62038004044505,-0.8023303326025689,-6.974895501888761,8.451331646256481,6.42229811591661,252.7777778088639,133.3333333497576,880.5555556639156,91.66666667792015,344.44444448678405,433.33333338666125,300.00000003690366,N
101_252,75854,210577.77780369503,210661.11113703865,210705.55558148856,210752.7778037166,210994.44447041303,18.29845999277173,-66.99001761088653,161.94790282518323,-59.44002777681382,16.886761046424684,-5.973199018260848,-1.2864532167210223,-6.401702602070673,7.296831919462612,7.095064030597537,241.66666669643018,127.77777779352618,869.4444445514528,91.66666667794925,333.33333337437944,416.6666667179961,288.88888892446994,N
101_253,76167,211447.2222482465,211530.5555815901,211575.00002604,211625.00002604615,211861.11113718635,17.247685438308253,-66.03818663649308,160.4944262204284,-58.19411469552029,16.408848866915413,-2.788628186531924,-4.179967075215677,-2.097190644309388,3.0683761917950654,4.949600948635392,236.11111114019877,127.77777779352618,905.5555556670297,94.4444444560504,330.5555555962492,413.88888893986586,286.1111111463397,N
101_254,76493,212341.66669280105,212436.1111372571,212480.55558170704,212533.3333594913,212791.66669285644,16.35309001225495,-67.61937997953297,160.45335062954365,-58.40891776233032,13.301350999201166,3.970388797150767,-6.7586256260020825,5.593242125537023,-0.8198379694538329,-1.4110698698341575,258.3333333651244,138.888888905989,938.8888890044473,97.22222223420977,355.5555555993342,450.0000000553846,311.1111111493956,N
101_255,76831,213286.11113736173,213375.00002626155,213419.4444707115,213469.44447071763,213725.00002630465,15.873807853729126,-60.90454956479344,150.44516543114884,-54.33133572633641,14.569597096097793,7.257259744583709,-5.587148989385135,4.900990777575013,-1.3939386892005277,-3.116522803892595,255.55555558702326,133.3333333497576,916.6666667794343,94.44444445607951,350.0000000431028,438.88888894292177,305.5555555931642,N
101_256,77161,214197.222248585,214291.66669304104,214336.11113749092,214386.11113749712,214633.33335974973,14.85585645010807,-67.92073835449564,163.5060587001237,-60.49170263795163,17.10307682409291,3.201773000544424,-6.14260815697946,5.166069988681226,-0.8420350173559255,-0.5601306697503268,247.2222222526034,138.8888889059308,936.1111112263752,94.44444445607951,341.6666667086829,436.1111111647333,297.2222222588025,N
101_257,77498,215147.2222487019,215227.77780426736,215272.2222487173,215322.22224872344,215563.88891541984,14.259592701747057,-67.04724676304883,158.2812842278027,-58.318334823417466,16.86537291587677,2.3778807468958783,-2.2793859705376,-1.64754901185516,0.9387518044669378,1.087654393802952,241.66666669640108,125.00000001539593,913.8888890013332,94.44444445607951,336.1111111524806,416.6666667179379,291.666666702542,N
101_258,77827,216061.1111377033,216141.66669326875,216186.11113771863,216233.3333599467,216472.22224886497,16.888563022846157,-57.958057124038994,145.82353403335168,-53.49105510518825,13.64900819345392,3.767296503548117,-0.1830082555889153,-0.4720158239849331,-1.6710966338471491,-4.110279417819539,238.88888891827082,125.00000001533772,888.8888889982773,91.66666667794925,330.5555555962201,411.1111111616774,286.1111111463397,N
101_259,78147,216941.6666933672,217030.55558226703,217075.0000267169,217122.22224894495,217372.2222489757,17.008746189019057,-66.2815617253717,168.10266938580654,-61.20009723201271,14.946553736385152,3.708419930238586,-0.2191756194812178,1.048133435764259,-2.176375966527296,-4.088007152635694,250.00000003076275,133.3333333496994,908.33333344516,91.66666667792015,341.6666667086829,430.5555556085019,297.2222222588025,N
101_260,78474,217850.00002681237,217938.88891571216,217983.33336016207,218033.33336016824,218275.00002686464,15.910270059438089,-67.79334594031022,165.78330532214605,-61.86865776256881,18.20084017671812,2.018831545361617,2.597832908401719,-3.0131002243139045,-1.6378727029085345,-3.3320459878726,241.66666669640108,133.3333333496994,947.2222223388089,94.44444445607951,336.1111111524806,425.0000000522705,291.6666667025711,N
101_261,78815,218794.44447137305,218886.11113805097,218930.55558250088,218977.7778047289,219241.66669365027,14.37452057808392,-64.74505153274481,157.62410479065358,-60.381956182209215,14.241172804011676,-3.509446796932937,-0.1120890286774012,-6.205437222591149,4.474682243425272,1.9470159551589905,263.88888892138493,136.11111112782964,955.5555556731706,91.66666667792015,355.5555555993051,447.2222222772252,311.1111111493956,N
101_262,79159,219738.8889159337,219841.6666937241,219886.11113817405,219936.1111381802,220202.77780487968,12.203058279166472,-68.28935428663046,168.4055068736631,-61.49092301296496,14.910002290526824,-0.9122939226637043,-1.419134338656149,-3.2626403986943924,2.8590007524186296,2.151275527093637,266.6666666994861,147.22222224035067,991.6666667887475,94.44444445607951,361.1111111555656,463.88888894597767,316.666666705627,N
101_263,79516,220733.33336050052,220830.55558273476,220877.7778049628,220927.7778049689,221183.33336055596,13.064295726016468,-62.80324324458368,152.01978953916847,-56.24060771664574,14.0425948879131,3.4407265641635427,0.9045121933252048,-1.5964981152503412,-1.4675367746520855,-4.221820911972296,255.55555558705237,144.44444446227862,936.1111112262879,97.22222223415156,352.7777778212039,450.0000000554428,305.5555555931642,N
101_264,79853,221669.4444717269,221769.4444717392,221813.88891618908,221863.8889161952,222108.33336066976,14.145670494642353,-64.2340564231717,153.25655723360163,-57.08279373746981,15.813858276066654,-1.7125735692442707,3.2372558107844958,-6.896272478285153,2.5509363987566385,0.4917574182049606,244.44444447456044,144.4444444621913,855.5555556608888,94.4444444559922,338.88888893055264,438.88888894286356,294.44444448067225,N
101_265,80161,222525.0000273877,222625.00002740003,222669.44447184997,222716.666694078,222952.77780521812,14.111941530517209,-58.57400504721534,150.24666337535953,-54.5766746169596,14.786897446944725,-0.5477602325079524,3.5614815178154617,-5.650320959487677,2.6588503705364417,-0.2525638325286339,236.11111114011146,144.44444446227862,841.6666667701793,91.66666667797836,327.7777778180898,427.77777783042984,283.3333333681512,N
101_266,80464,223372.22224971425,223466.66669417027,223511.11113862015,223561.11113862635,223808.333360879,15.380091853218527,-61.0269223907159,148.82341167270306,-55.40091293194902,15.741442298277889,-0.0387553092782468,5.426205500549419,-6.896298407902112,0.6291412245571643,-2.984257563466436,247.2222222526616,138.8888889059017,858.3333334390481,94.44444445607951,341.6666667087411,436.1111111647624,297.2222222588607,N
101_267,80773,224230.5555831532,224325.0000276093,224369.4444720592,224419.4444720653,224683.3333609867,15.093179783470834,-66.10174446531957,160.48499741210333,-59.32169864542514,14.180640528366206,2.685313808218384,2.5144812555342413,-2.4679552587851434,-1.899841239126376,-4.470723068795025,263.88888892138493,138.888888905989,927.7777778919553,94.4444444560213,358.33333337740623,452.77777783348574,313.88888892749674,N
101_268,81107,225147.22224993267,225255.55558327932,225297.22224995116,225350.0000277354,225613.8889166568,12.99183368014728,-69.94361262662741,163.11590379139002,-60.65821169836378,12.544716084120246,3.3103993408875447,3.9846704702840383,-2.8089633224317763,-1.2396261836847349,-4.157637829299952,263.88888892141404,150.00000001848093,958.3333334512718,94.44444445607951,358.33333337749355,466.66666672413703,316.6666667056561,N
101_269,81452,226119.44447227457,226213.88891673065,226255.55558340243,226308.3333611867,226572.22225010805,13.22818873818766,-66.29042549771938,154.20878923519643,-56.77047302036927,11.472106235366551,-2.12784042233925,5.86816247640034,-6.270818317564727,-0.3963298711372711,-3.292228435443776,263.88888892135583,136.11111112785875,938.8888890044473,94.4444444560504,358.33333337740623,452.77777783348574,316.666666705627,N
101_270,81790,227061.11113905712,227150.0000279569,227194.44447240687,227244.44447241304,227497.2222502219,15.496284208732453,-60.58672002745959,144.36501548646893,-52.24648558974227,12.18732478531924,-2.372568213421008,1.918207195314796,-6.2479833839084815,4.104433757057024,1.534785023290536,252.7777778088639,133.3333333497576,897.2222223326389,94.44444445613772,347.2222222650016,436.1111111647915,302.7777778150339,N
101_271,82113,227952.77780583352,228047.2222502896,228091.6666947395,228141.66669474565,228391.66669477645,15.274773188028416,-60.12036202722295,145.4987018778546,-52.44219179518833,12.659788420099606,-3.9093250237566086,-0.2149264044090075,-5.781109933207794,4.425694084708898,1.4411949342758217,250.00000003079185,138.888888905989,916.6666667794925,94.4444444560504,344.44444448684226,438.88888894292177,300.00000003693276,N
101_272,82443,228877.77780594735,228963.8889170691,229008.333361519,229058.33336152515,229311.11113933404,16.341297272297854,-58.93297768403568,143.30807098293553,-51.80786706451259,12.35019641361687,-0.8343141783751795,-2.5804775455110893,-0.7097298982169858,-0.4574786178092776,-1.3535107670606648,252.777777808893,130.55555557165644,916.6666667794925,94.4444444560504,347.2222222649434,433.33333338669036,302.7777778150339,N
101_273,82773,229797.22225050497,229880.55558384856,229925.0000282985,229975.00002830464,230222.2222505573,16.000029779611918,-59.916261250350345,141.36406076339162,-51.14288493840624,13.256719544707774,2.172523191311614,1.7214260389532507,-2.1097337549634427,-1.8003803144802355,-4.0303651060755685,247.2222222526616,127.77777779352618,927.7777778919553,94.44444445607951,341.6666667087411,425.0000000523287,297.2222222588025,N
101_274,83107,230716.6666950626,230811.11113951865,230852.77780619045,230900.0000284185,231163.88891733985,13.534813100894583,-52.72908674343623,132.29732708398993,-48.49589572986085,8.716188003391991,-3.385554758128312,3.899529351697896,-6.935237787275787,1.386841598740041,-1.5558740147141197,263.88888892135583,136.11111112785875,905.5555556670006,88.8888888998481,352.7777778212039,447.22222227725433,311.1111111493956,N
101_275,83433,231619.4444729515,231713.88891740757,231758.33336185745,231808.3333618636,232072.22225078495,15.659539573276447,-61.12664880159502,148.5601869428893,-54.14145708029977,14.711141426500172,0.2198263593351649,3.932436232213829,-4.3142945943161,-0.5628103599691113,-3.070117295116193,263.88888892135583,138.8888889059599,955.5555556731997,94.4444444560213,358.33333337737713,452.77777783345664,313.88888892749674,N
101_276,83777,232572.2222508465,232669.44447308072,232713.88891753065,232763.8889175368,233033.3333620144,14.037421200729822,-60.75711859918258,142.744274264981,-52.78775107320939,13.903992166610138,-2.5570873227514124,2.3250845189970453,-5.929736501061429,3.208758326923954,0.48070010351832,269.44444447761634,141.66666668414837,947.2222223387798,94.44444445607951,363.88888893369585,461.1111111679056,319.44444448375725,N
101_277,84118,233525.0000287416,233616.66669541952,233661.11113986943,233708.33336209747,233955.5555843501,14.944908058021047,-55.45139880575635,137.43413137634633,-50.007886673490624,13.572737436477034,-1.8851544709185957,-1.44713233772851,-4.841383956659223,3.632414893461261,2.554980155997316,247.2222222526325,136.11111112782964,858.3333334389608,91.66666667794925,338.88888893058174,430.5555556085019,294.44444448067225,N
101_278,84427,234388.8889177368,234475.00002885849,234519.4444733084,234566.66669553643,234802.7778066766,16.747163439666632,-57.78534096675078,150.4795068613789,-53.30503523665738,15.452887996450404,-1.3352154458901,-2.265084068974313,-1.8119748031099172,3.646486187288161,3.483988510873531,236.11111114016967,130.55555557159823,855.5555556608597,91.66666667794925,327.7777778181189,413.88888893980766,283.3333333682094,N
101_279,84735,235238.8889178414,235330.55558451932,235375.00002896925,235422.2222511973,235677.7778067843,16.346294748641014,-64.63685999498313,160.85570548020377,-59.52857205414642,16.24299204191058,-1.9595124700521216,-0.8365435299170856,-3.5770193247327877,3.859843014321463,2.3869180789289297,255.55555558699416,136.11111112785875,936.1111112263461,91.66666667797836,347.2222222649725,438.88888894289266,302.7777778150339,N
101_280,85072,236166.66669573332,236269.4444735238,236311.1111401956,236363.88891797984,236611.1111402325,14.110649495745404,-66.91362982299046,160.89424303760362,-60.32427848571302,13.128189661755531,-1.5587485237034022,-3.0578254977079986,-1.315680207965159,0.7469998522162771,0.3268494413420678,247.2222222526616,144.44444446227862,961.1111112293729,94.4444444560504,341.666666708712,444.4444444991823,300.00000003690366,N
101_281,85418,237127.77780696275,237227.77780697503,237272.22225142497,237325.00002920924,237575.00002924004,13.30345233259413,-61.46405132891962,146.99337228327883,-54.718444180124514,14.782507833088053,4.110802599388208,1.2191942143123935,-2.096604104333509,-1.3978987163883,-4.6726343645603805,250.00000003079185,144.44444446222042,927.7777778919844,97.22222223420977,347.2222222650016,447.22222227728344,302.777777815063,N
101_282,85752,238061.11114041097,238155.55558486705,238200.00002931696,238252.77780710123,238511.11114046635,15.509580701599983,-59.5812691119577,143.17081168486004,-52.80503094425801,12.274686665659724,1.3255633814280243,3.73612393368058,-3.6168690404389015,-1.8243609206594216,-3.5070500700871983,258.3333333651244,138.888888905989,877.7777778858435,97.22222223418066,355.5555555993051,450.0000000553846,311.1111111493956,N
