Index,Peak indices,P Peak Time,Q Peak Time,R Peak Time,S Peak Time,T Peak Time,P_ml2_Ampli,Q_ml2_Ampli,R_ml2_Ampli,S_ml2_Ampli,T_ml2_Ampli,P_v5_Ampli,Q_v5_Ampli,R_v5_Ampli,S_v5_Ampli,T_v5_Ampli,diff_T_S,diff_R_P,diff_R_next_R,diff_RQ_SR,diff_T_Q,diff_T_P,diff_T_R,label
102_1,136,0.0,288.8888889244445,377.7777778242735,425.0000000523077,497.2222222834188,0.0,-33.40897561933395,44.95208506962575,-50.80163589902416,9.062981128635396,0.0,9.697606138299127,-93.1899057089912,-190.9683187733881,87.50009210819098,72.22222223111106,377.7777778242735,761.1111112047865,136.11111112786324,208.3333333589743,497.2222222834188,119.44444445914525,/
102_2,410,1033.333333460513,1100.0000001353849,1138.88888902906,1225.0000001507694,1438.888889065983,3.621194479347788,-38.66802921692108,61.06184576956766,-35.641169594217686,5.914935958848064,-2.1940931244921256,-3.3429230304381856,168.73245299775542,-218.7589313165352,37.015110789902494,213.88888891521356,105.5555555685471,797.2222223203416,125.00000001538456,338.8888889305981,405.5555556054701,300.000000036923,/
102_3,697,1825.000000224616,1897.2222224557268,1936.1111113494017,2019.444444692992,2069.4444446991456,3.6652274113054526,-35.24492558973012,59.92447575255392,-45.86278618412378,10.621875688759385,0.825984190526163,-5.196015766695466,174.9115083217091,-213.0516708791089,76.68211101205674,50.00000000615364,111.11111112478557,811.1111112109406,122.22222223726521,172.22222224341886,244.44444447452952,133.33333334974395,/
102_4,989,2636.111111435556,2705.555555888547,2747.2222225603423,2836.1111114601717,2908.3333336912824,2.5190203356997536,-35.29039596171328,61.42525946258815,-49.50324458666843,14.3620942772902,0.001909225116796,-9.455406899786984,173.22469213792246,-196.85394171707017,138.94734420865058,72.22222223111066,111.11111112478648,877.7777778858112,130.5555555716246,202.77777780273527,272.2222222557266,161.11111113094012,/
102_5,1305,3516.666667099488,3586.111111552479,3625.0000004461535,3722.2222226803424,3775.000000464616,3.536369445122038,-35.52270174486765,56.27325040041251,-44.3112604936986,8.833623869870951,0.0372599991396025,-12.16144073590297,157.34880931769572,-172.46745498712934,65.30672725359419,52.77777778427344,108.33333334666531,858.3333334389754,136.1111111278633,188.88888891213674,258.3333333651276,150.0000000184623,/
102_6,1614,4369.444444982223,4444.444444991454,4483.333333885129,4575.000000563077,4630.555556125471,3.32467986915384,-35.18221713105723,60.57429986708751,-46.05910684177495,9.385288001892704,1.1753570864080625,-2.996914077683459,160.539000347514,-179.27087883972365,92.52952956976064,55.55555556239415,113.88888890290582,825.0000001015387,130.5555555716237,186.11111113401785,261.1111111432483,147.2222222403425,/
102_7,1911,5200.0000006400005,5266.666667314872,5308.333333986668,5397.222222886497,5466.666667339488,2.812573505249615,-36.87347162091256,62.13561617630282,-46.35400988130703,8.639557467941842,-0.3626188139937743,-10.382044199714898,171.09030696624734,-205.70723268290715,149.74068768782436,69.44444445299177,108.33333334666713,805.5555556547006,130.5555555716246,200.00000002461638,266.6666666994879,158.33333335282077,/
102_8,2201,6000.000000738462,6075.000000747693,6113.888889641368,6202.777778541197,6266.666667437949,4.141279714626957,-36.96804215802274,60.909809573240814,-52.13905138676034,10.751229575091164,2.7454157635937357,-10.534577453107524,179.46864078070578,-218.98443069565323,154.55118524814222,63.88888889675218,113.88888890290582,800.0000000984619,127.77777779350436,191.66666669025653,266.666666699487,152.77777779658118,/
102_9,2489,6802.777778615044,6875.000000846155,6913.88888973983,7000.000000861539,7236.11111200171,3.655154777472944,-32.95200317510628,50.327181061600136,-36.06185671001504,6.076670642993142,-0.2548712878099385,4.250863386863566,167.35726189826633,-183.14221205758656,7.004931694764578,236.1111111401715,111.11111112478648,811.1111112109402,125.0000000153841,361.1111111555556,433.3333333866667,322.22222226188023,/
102_10,2781,7613.888889825984,7688.888889835214,7725.00000095077,7833.3333342974365,8041.666667656411,7.808243947192079,-34.76746372076221,33.965521593977314,-21.682130575209943,7.364337715965838,-5.6119868198940095,-8.52733129932726,165.58562474951896,-176.6755448145058,20.748161926621304,208.33333335897441,111.11111112478648,808.3333334328208,144.44444446222224,352.77777782119665,427.7777778304271,316.66666670564064,/
102_11,3072,8419.444445480685,8491.666667711796,8533.333334383591,8630.555556617779,8847.222223311112,4.961567499723672,-31.84420865799145,56.12819257825278,-31.779442013987108,8.279158847984114,-0.915076855105008,-14.351894698579972,163.38692411811948,-194.7615123281072,31.6801014611005,216.66666669333244,113.88888890290582,836.111111214017,138.88888890598355,355.555555599316,427.7777778304262,313.8888889275204,/
102_12,3373,9250.000001138462,9330.555556703932,9369.444445597608,9461.111112275556,9713.888890084443,3.404550025248842,-34.076617413074814,55.34638244549524,-36.75886791874369,5.02856845712055,2.2835919713134643,-0.99468079903597,164.3335701721351,-181.72162749864316,15.00605147497174,252.77777780888755,119.44444445914633,886.1111112201725,130.5555555716237,383.33333338051125,463.8888889459813,344.444444486835,/
102_13,3692,10150.000001249233,10216.666667924104,10255.55555681778,10347.222223495728,10397.222223501882,3.5648973918069795,-33.52258848756393,54.55513981441682,-45.49989188562908,11.4494213386508,-1.6562192369815292,-4.106578580517706,160.84408193662986,-192.47289153368664,71.91265742849282,50.00000000615364,105.55555556854779,850.0000001046137,130.5555555716237,180.55555557777734,247.22222225264886,141.66666668410107,/
102_14,3998,10997.222223575727,11063.8888902506,11105.555556922394,11194.444445822224,11275.000001387694,4.288494877322903,-35.484288415917014,58.68419601826987,-54.25833030336516,14.857074895668488,-0.6279270245509345,-10.57592658899509,176.11694025079623,-207.56588336946768,117.29395008665507,80.55555556547006,108.33333334666713,808.3333334328199,130.5555555716237,211.11111113709376,277.7777778119671,169.44444446529997,/
102_15,4289,11800.000001452308,11875.00000146154,11913.888890355214,11997.222223698804,12233.333334838975,3.570538755556877,-35.21756927562442,57.11182253277871,-54.57331977730336,12.347071463038947,2.223976844981012,-6.293567905353898,186.0216019805222,-226.22168164778225,7.438922020864969,236.1111111401715,113.88888890290582,805.5555556547024,122.22222223726385,358.33333337743534,433.3333333866667,319.4444444837609,/
102_16,4579,12602.77777932889,12677.77777933812,12719.444446009917,12797.222223797266,12858.333334915898,2.9029600344889457,-33.64072479845297,59.63318867574041,-54.37716838272346,9.858366250961566,1.793005641366928,0.0933523314498647,190.30230659283148,-243.0946607381001,162.53061826199087,61.111111118632834,116.66666668102698,797.2222223203389,119.44444445914633,180.55555557777916,255.5555555870087,138.88888890598173,/
102_17,4866,13413.88889053983,13477.777779436585,13516.666668330256,13605.555557230087,13850.000001704617,2.455112737036335,-33.81362701709214,43.6464143222454,-38.10709931190976,5.656343581076857,-4.13257779490765,1.4001913396714072,173.91910475721374,-197.2436847725172,-4.476467587618677,244.44444447452952,102.7777777904248,827.7777778796608,127.77777779350254,372.22222226803206,436.11111116478605,333.33333337436125,/
102_18,5164,14222.22222397265,14308.33333509436,14344.444446209916,14444.444446222224,14663.888890693675,3.450505253252384,-30.179732588234103,50.02430469928215,-43.466261568642885,7.018839454027181,2.387316625329591,-7.766836994735848,168.55811612039437,-195.79141979261112,15.954484151978482,219.4444444714518,122.22222223726567,838.8888889921363,136.1111111278642,355.555555599316,441.66666672102474,319.44444448375907,/
102_19,5466,15069.444446299149,15144.444446308378,15183.333335202053,15269.444446323763,15516.666668576412,3.950256527467209,-39.67055939622978,62.8420926440667,-44.688290845543634,5.848785037919442,0.4928551650732829,3.5003101206013216,178.5464637412179,-197.21465877379111,4.423598441284943,247.22222225264886,113.888888902904,838.8888889921345,125.00000001538501,372.2222222680339,447.2222222772634,333.3333333743594,/
102_20,5768,15905.555557513164,15983.333335300516,16022.222224194187,16111.11111309402,16161.111113100173,3.1437270697587136,-34.55264020889849,54.72117670122848,-47.53947157224029,10.22801125384532,2.922009510925383,-7.263970252230134,174.7077225166561,-188.9186371499599,61.99137419419267,50.00000000615182,116.66666668102334,877.7777778858162,127.77777779350436,177.77777779965618,255.5555555870087,138.88888890598537,/
102_21,6084,16791.666668733335,16861.111113186325,16900.000002080003,16991.66666875795,17047.222224320343,4.689481347908364,-33.408992276210064,54.425616283508745,-47.5575231317221,10.627193706509146,0.4000479858531193,-2.743642990342104,173.0117454505717,-196.8286878784109,127.9719685081877,55.55555556239415,108.33333334666895,822.2222223234166,130.5555555716237,186.11111113401785,255.5555555870087,147.22222224033976,/
102_22,6380,17613.888891056755,17686.111113287865,17722.22222440342,17811.11111330325,17863.888891087525,2.8016930973073184,-34.39497656228766,54.23158925384748,-47.92910239074568,10.511314601101084,0.3142054210529686,-0.7262189362892684,179.5565206602974,-205.5036852616985,112.59233169652606,52.777777784274804,108.33333334666531,791.6666667641039,125.00000001538501,177.77777779965982,250.00000003077002,141.6666666841047,/
102_23,6665,18397.222224486497,18475.00000227385,18513.888891167524,18594.444446732992,18683.333335632826,3.4439776305749343,-34.796642768578685,58.760076624859394,-47.7769699185742,11.393442712961962,1.6782749400023973,3.422573232133619,182.38283355586745,-227.43559098569207,76.91727819570815,88.88888889983355,116.66666668102698,794.4444445422232,119.44444445914269,208.33333335897623,286.11111114632877,169.44444446530179,/
102_24,6951,19194.44444680684,19269.44444681607,19308.333335709747,19391.66666905333,19458.333335728206,2.37027168939482,-33.761310966717645,58.1594535490649,-50.61273816861648,9.436022226105996,1.8828363828130852,-4.202532432653957,181.66744026346785,-227.6003968861027,145.99351910602925,66.66666667487516,113.88888890290764,808.3333334328199,122.22222223726203,188.8888889121372,263.88888892136674,150.0000000184591,/
102_25,7242,20011.111113574018,20077.777780248893,20116.666669142567,20202.777780264278,20263.888891382907,3.0569227756739514,-34.83937547871985,56.788272136494605,-54.22269608606523,11.772470581604365,-1.6227691086558491,-4.255857402700043,166.17458503563924,-195.60744053775963,128.81704386502312,61.111111118629196,105.55555556854961,852.7777778827331,125.00000001538501,186.1111111340142,252.77777780888937,147.22222224033976,/
102_26,7549,20861.111113678635,20930.555558131626,20969.4444470253,21063.88889148137,21125.0000026,2.942130064117249,-32.99623800630031,51.82583003503158,-41.59573572975269,6.837452535333895,0.7981660636245765,-10.863727490968444,165.93896176261592,-179.02700372851433,130.0207618290726,61.111111118632834,108.33333334666531,855.5555556608597,133.33333334974304,194.44444446837588,263.88888892136674,155.55555557470143,/
102_27,7857,21716.66666933949,21786.11111379248,21825.00000268616,21919.444447142225,22141.6666693918,4.3093136480630365,-35.36477997625759,55.34021904801308,-32.155682000163964,7.890675390520446,-0.2732602143961423,-6.066495339967217,153.72455666045633,-176.95752375701923,35.21541266430596,222.2222222495766,108.33333334666895,838.8888889921327,133.33333334974304,355.55555559931963,425.0000000523105,316.66666670564155,/
102_28,8159,22544.444447219143,22627.777780562737,22663.888891678293,22772.22222502496,23016.66666949949,5.879949523873001,-32.06193842521584,36.49724277915762,-33.23476434210738,7.81388878815232,0.4687599079006692,-18.80444565803642,144.01853690016333,-154.61269194064323,8.53322669405826,244.4444444745277,119.44444445914996,872.2222223295721,144.44444446222406,388.88888893675175,472.2222222803466,352.77777782119665,/
102_29,8473,23416.66666954872,23500.00000289231,23536.111114007865,23630.555558463933,23850.000002935387,2.343176937651468,-27.064247496232277,40.32601099010861,-31.99718260142528,6.4904076132303015,1.90133896454128,-5.236717325995954e-06,156.627395397657,-188.6062749264073,19.2503686033638,219.4444444714536,119.44444445914633,805.5555556547006,130.5555555716237,350.0000000430773,433.3333333866685,313.8888889275222,/
102_30,8763,24230.55555853778,24305.55555854701,24341.666669662565,24425.00000300616,24475.000003012312,2.4295579580579028,-32.66652240675726,49.9065032824252,-45.16999054899273,6.264129958329705,1.546235274331805,-1.0433569091127046,176.24614311080543,-222.4145101250722,98.7033910801458,50.00000000615182,111.11111112478466,777.7777778735071,119.44444445914996,169.44444446530179,244.44444447453134,133.33333334974668,/
102_31,9043,25011.111114189403,25077.777780864275,25119.444447536072,25200.00000310154,25255.55555866393,3.791309099420614,-36.4878174873279,63.05021716278395,-51.97743849847868,12.903758840037852,-1.1942512060800456,-9.98070651480264,177.13276734817967,-210.8271297770079,121.30542637785985,55.55555556239051,108.33333334666895,805.5555556547006,122.22222223726567,177.77777779965618,244.4444444745277,136.11111112785875,/
102_32,9333,25816.666669844104,25886.1111142971,25925.000003190773,26008.33333653436,26255.55555878701,2.8473309145902888,-35.150958115313834,57.95455465301201,-50.9331409461922,8.307518381386537,-0.6500576828367596,-2.2872935255743942,184.27572542138049,-212.66933161287977,1.3454950699884662,247.22222225265068,108.33333334666895,825.000000101536,122.22222223726203,369.4444444899127,438.8888889429072,330.55555559623826,/
102_33,9630,26636.111114389405,26711.111114398635,26750.00000329231,26838.88889219214,27102.777781113506,3.156406951640276,-33.361036985864146,51.548558829042406,-46.00740870600638,10.014541408694706,1.83889857925984,-6.927052736478794,160.96206007685907,-184.2411775240163,-1.6137406369172351,263.88888892136674,113.888888902904,861.1111112170947,127.77777779350436,391.6666667148711,466.66666672410065,352.77777782119665,/
102_34,9940,27494.44444782838,27575.00000339385,27611.111114509404,27700.000003409237,27966.66667010872,3.680768992871762,-33.050656115359764,51.941307134077626,-49.4609159469458,11.01736643578216,3.034048504064996,5.577090727862118,170.93947214247294,-190.1888992753423,-12.864811526248218,266.66666669948245,116.66666668102334,847.222222326498,125.00000001538865,391.6666667148711,472.22222228033934,355.555555599316,/
102_35,10245,28350.000003489236,28419.444447942224,28458.3333368359,28547.222225735728,28608.33333685436,3.6117091775740415,-34.111572173000006,53.22056103123276,-55.72943327797954,14.001182292770356,-0.2692630043900637,-3.595215572576544,169.57119586136108,-191.10275610534785,136.41071527305417,61.111111118632834,108.33333334666531,827.777777879659,127.77777779350436,188.8888889121372,258.3333333651244,150.0000000184591,/
102_36,10543,29177.77778136889,29247.222225821883,29286.11111471556,29377.777781393503,29633.333336980515,3.7836371444910735,-31.72749294449691,45.050566383893845,-41.53624040831032,5.9122516714659294,0.0500468118810754,-2.002659155256062,156.2801685653349,-180.90468107378064,3.5059129972391725,255.55555558701235,108.33333334666895,838.8888889921363,130.55555557162006,386.1111111586324,455.5555556116233,347.2222222649543,/
102_37,10845,30016.666670361028,30088.88889259214,30125.000003707697,30213.888892607523,30430.555559300858,1.7708134240835256,-30.16695063132187,42.735218443993325,-33.35753204655431,7.578749114281045,-1.569272895318469,13.045572848497448,162.59479094065435,-189.90985239518344,26.501338156909085,216.66666669333426,108.33333334666895,852.7777778827331,125.00000001538501,341.6666667087193,413.8888889398295,305.55555559316053,/
102_38,11152,30800.00000379077,30886.11111491248,30977.77778159043,31030.555559374705,31233.33333717744,8.447818742809721,-34.581136042400324,41.15497996340851,-33.52104707265081,8.349700705588688,-1.4947184145361512,3.62850513732893,-133.94043965665702,-143.48181282213548,8.825027215683447,202.7777778027339,177.77777779965982,727.7777778673517,144.44444446222406,347.22222226495796,433.3333333866685,255.5555555870087,/
102_39,11414,31597.222226111116,31669.444448342227,31705.55555945778,31788.88889280137,32033.3333372759,2.8569996956463006,-34.87284010218171,51.67624263043126,-37.97964670090606,5.59145152369294,-1.8605101499572745,15.018937293870922,174.43314038907118,-193.27516752799644,6.747804360900949,244.44444447453134,108.33333334666531,822.2222223234166,119.44444445914269,363.888888933674,436.11111116478423,327.7777778181189,/
102_40,11710,32413.88889287829,32488.888892887524,32527.7777817812,32611.11111512479,32866.6666707118,3.172594873760585,-32.70335064799155,53.236484882790926,-39.56306864102408,7.582885611089147,1.3928597858820997,-0.023736214000386,171.64039379017876,-203.3988555540593,6.8423154691488985,255.5555555870087,113.88888890290764,855.555555660856,122.22222223726567,377.7777778242744,452.77777783350757,338.88888893059993,/
102_41,12018,33275.00000409539,33344.44444854838,33383.333337442054,33475.000004120004,33530.5555596824,3.707581567347357,-34.71837757301711,55.88241470473056,-51.0201808263478,16.005668891358088,-0.5036009603174898,-2.8722839051322,164.41252658324515,-171.3091668555919,91.88628823170272,55.55555556239415,108.33333334666531,866.666666773337,130.55555557162734,186.11111113402148,255.5555555870087,147.2222222403434,/
102_42,12330,34144.44444864684,34211.11111532171,34250.00000421539,34338.88889311522,34408.33333756821,4.137520512443133,-36.25664210671219,54.609487319034486,-48.61038747712972,11.885219766573542,-0.8559075540420307,-12.314034623029274,171.58321349855538,-197.23305156802397,137.71521164486148,69.4444444529945,105.55555556854961,838.8888889921363,127.77777779350436,197.22222224649886,263.8888889213704,158.33333335282077,/
102_43,12632,34980.555559860855,35052.77778209197,35088.88889320753,35177.777782107354,35452.7777821412,3.0683303327984457,-35.73400850543974,56.05247498395988,-42.91982718334948,9.88993782419264,0.426656349723426,2.365802073221741,172.3800035122617,-197.3080717658314,-35.85447333168489,275.00000003384775,108.33333334667259,816.6666667671743,125.00000001538137,400.00000004922913,472.2222222803466,363.888888933674,/
102_44,12926,35802.77778218428,35869.44444885915,35905.5555599747,35997.22222665265,36244.444448905306,3.329162428408108,-34.97314109529193,53.98117543801634,-42.3390232307686,7.056752596760575,-2.527208397737892,4.796118347137919,171.5291381362303,-186.83847699441444,7.564454567370754,247.22222225265432,102.77777779041935,825.0000001015433,127.77777779350436,375.0000000461587,441.6666667210229,338.88888893060357,/
102_45,13223,36625.000004507696,36691.66667118257,36730.555560076245,36819.44444897607,37055.55556011624,3.4615560135587,-34.19702239513204,48.13483276266415,-34.70531943909843,7.899014716382884,-2.099631203604388,-6.250405381246103,183.93435627509984,-182.92857665386637,4.7842605441786015,236.11111114016967,105.55555556854961,800.0000000984583,127.77777779350436,363.888888933674,430.55555560854555,325.00000003999594,/
102_46,13511,37430.5555601624,37494.44444905915,37530.555560174704,37638.88889352137,37847.222226880345,7.326930396841103,-37.943696952349626,37.25685873666298,-26.661274792591943,7.160286456051408,-7.888908445732139,-2.0756500666787803,171.27405013997034,-157.82779506536582,7.314730253941951,208.33333335897623,100.00000001230364,794.4444445422268,144.44444446222042,352.77777782119665,416.6666667179452,316.66666670564155,/
102_47,13797,38213.88889359214,38286.11111582325,38325.00000471693,38413.88889361676,38666.66667142564,3.506003805339259,-34.33848509934845,54.767158049949245,-39.79753740199037,7.759495466812597,-0.4235708598414754,-2.109209078815105,175.90726464864213,-197.75490803367896,4.73675442543262,252.77777780888573,111.1111111247883,836.1111112140134,127.77777779350436,380.5555556023901,452.7777778335003,341.666666708712,/
102_48,14098,39047.22222702804,39122.22222703727,39161.111115930944,39250.00000483077,39308.33333817129,5.445171128921927,-36.85521045033775,57.877541883912606,-58.573644524421006,13.866654231854326,1.4744082279242523,-2.1951974855997745,171.02203026538118,-192.33053874100065,124.4276172553242,58.33333334051713,113.888888902904,861.1111112170984,127.77777779349708,186.1111111340142,261.1111111432474,147.2222222403434,/
102_49,14408,39911.11111602325,39986.11111603248,40022.22222714804,40116.66667160411,40172.2222271665,3.4369755729216425,-37.13748731659096,54.62561380662,-43.181779840906565,6.0922001841615465,1.4792456890287289,-1.4606456724093158,163.8781993668159,-169.66474987835642,86.16902381292977,55.55555556239415,111.11111112479557,861.1111112170911,130.55555557162734,186.11111113402148,261.1111111432547,150.0000000184591,/
102_50,14718,40775.00000501847,40844.444449471455,40883.33333836513,40972.22222726496,41050.00000505232,3.776159898488277,-35.680123208385645,57.40466145356522,-44.84280500030047,6.757322710814595,-0.9287952778024168,0.8645525796166494,172.4103961564332,-196.188182441345,123.9626497611874,77.77777778736345,108.33333334666531,819.4444445452973,127.77777779350436,205.5555555808678,275.00000003385503,166.66666668718972,/
102_51,15013,41597.22222734189,41663.88889401676,41702.77778291043,41788.88889403214,42027.777782950434,3.1187106847009414,-33.615564688759584,51.4559827254264,-40.922773634347145,6.399697549892164,-1.78542988095265,0.013508227814343,178.88160743947716,-199.86091130067257,6.188542422208402,238.88888891829265,105.55555556854233,800.0000000984655,125.00000001538137,363.888888933674,430.55555560854555,325.0000000400032,/
102_52,15301,42394.44444966222,42463.88889411522,42502.777783008896,42591.66667190872,42825.00000527078,2.322047794451485,-32.99834339400219,50.57388695079068,-34.47866244225738,4.989243722084959,-1.629882603916723,9.402980083382728,166.78498224601515,-178.2661002922104,34.146866343769375,233.33333336205396,108.33333334667259,886.1111112201688,127.77777779350436,361.1111111555583,430.5555556085528,322.22222226188023,/
102_53,15620,43213.88889420753,43294.44444977299,43388.888894229065,43444.44444979146,43655.55556092855,8.462524482273572,-34.1801745234684,43.713446299734,-31.93378733750182,9.15601381769742,-4.219937508889025,2.700320646976353,-135.51828500547396,-128.94528964002976,6.2392594967963,211.11111113709194,175.00000002153683,750.0000000923101,150.00000001846638,361.1111111555583,441.6666667210229,266.6666666994861,/
102_54,15890,44030.5555609747,44100.0000054277,44138.888894321375,44225.00000544308,44458.33333880513,4.422718095874752,-40.15707010037757,58.90175493802136,-34.33188883309186,6.438501006227232,-2.25859509940601,1.1730362573464077,176.11241969700518,-202.57305791609957,5.976069924186121,233.33333336205396,108.33333334667259,813.8888889890586,125.00000001538137,358.33333337743534,427.77777783042984,319.44444448375725,/
102_55,16183,44841.666672185645,44913.88889441676,44952.777783310434,45044.44444998838,45097.222227772654,3.5703288885779902,-36.2418004443023,60.48827216818916,-50.014843314837,14.4591620281967,1.1069284901644056,-7.795255683009034,174.03048348595527,-178.5299431293753,84.79095964022929,52.777777784271166,111.1111111247883,858.3333334389754,130.55555557162006,183.33333335589123,255.5555555870087,144.44444446222042,/
102_56,16492,45702.77778340274,45772.22222785573,45811.11111674941,45902.77778342736,45961.11111676787,3.871923835651456,-34.66231175893498,53.74898631564726,-46.01457189985309,7.754535179650517,-1.2079769891772023,3.993894525946761,169.66435843643868,-189.34659946156785,132.7311214465961,58.33333334050985,108.33333334667259,863.8888889952141,130.55555557162734,188.8888889121372,258.3333333651317,150.0000000184591,/
102_57,16803,46558.3333390636,46636.11111685095,46675.00000574462,46766.66667242257,46822.22222798496,3.6352802550894703,-36.39698969072796,57.23149703947517,-46.67529341460357,10.181883058661098,2.1733119382634314,-3.031741060758386,159.73246146491488,-181.3129380356822,101.30829524524384,55.55555556238687,116.6666666810197,847.222222326498,130.55555557162006,186.11111113400693,263.88888892135583,147.22222224033612,/
102_58,17108,47411.11111694633,47480.55556139932,47522.22222807112,47602.777783636586,47655.55556142086,3.2756768216386334,-32.87912282935948,57.146560172363394,-48.94593119508006,9.89038717671393,-1.315920967819184,2.4126677108146906,174.48742914476907,-207.14767543448767,112.0449701060619,52.777777784271166,111.1111111247883,791.6666667640966,122.22222223726567,175.00000002153683,244.44444447452406,133.33333334973577,/
102_59,17393,48177.77778370736,48275.00000594155,48313.88889483522,48408.33333929129,48641.66667265334,3.2332680311891595,-32.33638329549043,47.33010077414836,-31.435239272967564,6.743849934808844,4.448034344763265,0.3564064721197881,188.61927374442257,-184.4691571803545,-0.2202752497980213,233.3333333620467,136.11111112785875,797.2222223203426,133.33333334974304,366.66666671178973,463.88888894597767,327.7777778181189,/
102_60,17680,49005.55556158701,49075.000006040005,49111.11111715556,49213.88889494599,49455.5555616424,2.5091713199093477,-33.372630486594744,39.68844245015696,-34.88437883408477,8.590535252840915,-1.0305790971059052,0.2371616193583546,170.52223365852487,-164.2772586291272,-0.017213771516892,241.66666669641563,105.55555556854961,830.555555657782,138.88888890598173,380.55555560239736,450.00000005539187,344.44444448684226,/
102_61,17979,49816.666672797954,49908.3333394759,49941.66667281334,50041.666672825646,50258.33333951898,1.7191898437840123,-28.53278578791366,37.81094022779183,-30.629594226660934,6.138263836168086,1.4759794606651873,11.467564622361666,163.17471978332932,-185.11620893236596,16.027736267735467,216.66666669333063,125.00000001538865,819.4444445452973,133.33333334974304,350.00000004307367,441.6666667210229,316.66666670563427,/
102_62,18274,50652.77778401197,50722.22222846496,50761.11111735864,50852.77778403659,51080.5555618424,2.146367213051956,-31.499563544051263,50.00753874630984,-35.90245578787095,7.277066973219094,-3.4275349160101096,-1.021220584113848,172.21906299946355,-198.12534990586997,14.589559058067142,227.777777805808,108.33333334667259,830.5555556577747,130.55555557162734,358.33333337743534,427.77777783042984,319.44444448375725,/
102_63,18573,51477.77778411351,51552.77778412274,51591.666673016414,51680.55556191625,51941.666673059495,3.320286860395792,-38.82094568862307,63.13242964394296,-40.08826700427007,6.57325128467564,1.4372538802534525,1.104300806175078,169.60294563489492,-172.63483814897313,5.686059818457876,261.1111111432474,113.888888902904,850.0000001046137,127.77777779350436,388.88888893675175,463.88888894598495,350.00000004308095,/
102_64,18879,52330.55556199625,52402.77778422736,52441.66667312103,52533.33333979898,52597.22222869573,2.80221367479057,-34.82849017122254,54.50793474288856,-51.724003499179645,14.327793437996531,0.4871683702068158,-1.119200885825635,171.2599441889767,-176.98460340371972,133.9161390955194,63.888888896755816,111.11111112478102,847.222222326498,130.55555557162006,194.44444446837588,266.6666666994861,155.55555557470507,/
102_65,19184,53191.66667321334,53252.77778433197,53288.888895447526,53383.3333399036,53444.44445102223,2.991769047514353,-37.41584357673359,53.77015937448165,-52.19644407314996,10.3727235215098,-6.190735489174035,5.691530666457083,164.1346937965205,-181.21154152201848,133.04842388674928,61.111111118632834,97.22222223418794,822.2222223234276,130.55555557162734,191.66666669026017,252.777777808893,155.55555557470507,/
102_66,19480,53994.44445108992,54072.22222887727,54111.11111777095,54200.00000667077,54263.88889556753,3.6176198960193098,-34.777939088038906,52.38677570783289,-51.91259230624792,8.779550801395676,1.9332589351810363,-2.000234432004528,173.41954621273075,-207.32620189753715,150.0964793555077,63.888888896755816,116.66666668103426,791.6666667640966,127.77777779350436,191.66666669026017,269.44444447760907,152.7777777965748,/
102_67,19765,54791.66667341026,54863.88889564137,54902.77778453505,54988.88889565676,55227.777784575046,3.6689377911133394,-35.302293868810885,54.5846071636412,-44.53340938476662,5.623814290833794,0.9873041318286218,-2.5897220964019034,182.0263258581796,-206.8790394563076,10.228119605834344,238.88888891828537,111.1111111247883,805.555555654697,125.00000001538865,363.888888933674,436.11111116478423,325.00000003999594,/
102_68,20055,55608.33334017744,55669.44445129608,55708.33334018975,55808.33334020206,56041.66667356411,2.2717861867204125,-33.70319651559303,43.82102522415816,-34.76722743600784,8.83754703252709,-5.209105948875332,-10.0083845637718,174.54755678764724,-154.17481996617644,26.80349411678041,233.33333336205396,100.00000001230364,844.4444445483823,138.88888890597445,372.2222222680284,433.3333333866685,333.3333333743649,/
102_69,20359,56427.77778472274,56516.66667362257,56552.77778473813,56652.77778475043,56891.666673668726,3.2526699957408414,-30.831544716014445,41.51395045984724,-34.005979122989295,6.246095336245745,1.9104973041928108,-2.3712628277765258,153.62879470740856,-187.19744518379807,2.5461813498537724,238.88888891829265,125.00000001538865,844.4444445483678,136.11111112786602,375.0000000461587,463.88888894598495,338.8888889305963,/
102_70,20663,57291.66667371796,57358.333340392826,57397.2222292865,57483.333340408215,57536.111118192486,3.0066635694112027,-37.69313684458708,58.55883211129406,-47.646821350608455,9.663534987810303,-2.129214229125192,-4.699084200723611,180.1455859556008,-203.37500459429677,104.95842128117344,52.777777784271166,105.55555556853506,838.8888889921436,125.00000001538865,177.77777779965982,244.44444447452406,138.888888905989,/
102_71,20965,58127.777784931975,58197.22222938496,58236.11111827864,58327.77778495659,58386.1111182971,2.71312764583269,-37.97631122926472,57.27004075049451,-51.96564584624263,8.965247111480823,-1.040128229409674,2.4527517694130254,173.4222681362227,-177.55970029905495,124.25351395362163,58.33333334050985,108.33333334666531,841.666666770252,130.55555557162734,188.8888889121372,258.3333333651244,150.0000000184591,/
102_72,21268,58975.00000725847,59038.88889615522,59077.77778504889,59169.44445172684,59225.00000728924,4.053311942497838,-36.89112434554451,54.989737558442926,-56.7319281472143,12.417054840664754,-3.4132106756581884,-6.909797422914152,171.76493369842058,-189.49587142973525,109.92148845047392,55.55555556240142,102.77777779041935,830.5555556577892,130.55555557162006,186.11111113402148,250.00000003077002,147.22222224035067,/
102_73,21567,59800.00000736001,59869.444451813,59908.33334070668,59997.2222296065,60058.333340725134,3.5475165109284705,-35.81793084210244,56.434760513141725,-48.55897979254342,8.61240160819245,-0.2926222791458304,-4.544483160465547,168.78236890144248,-191.13239343656977,129.29967161539057,61.111111118632834,108.33333334667259,805.5555556546897,127.77777779350436,188.8888889121372,258.3333333651244,150.00000001845183,/
102_74,21857,60605.55556301471,60675.0000074677,60713.88889636137,60800.00000748308,61038.888896401375,4.147581182814043,-36.9502268298616,60.49870102393604,-42.739830987658834,9.372508069512868,-1.0464877759008355,5.54425486015156,180.2462255389217,-190.12039629050395,11.88375928455781,238.88888891829265,108.33333334666531,794.4444445422268,125.00000001538137,363.888888933674,433.3333333866685,325.0000000400032,/
102_75,22143,61330.55556310394,61466.666674231805,61508.3333409036,61600.00000758155,61675.00000759077,5.483001896258139,-38.20003682828539,48.76543896740425,-49.810304408436295,9.981913345717428,-7.391555614532372,-18.42370570698325,188.86447322029915,-188.06659431797212,105.29261219601372,75.00000000921864,177.77777779965982,808.3333334328199,133.33333334974304,208.33333335896168,344.4444444868277,166.6666666871679,/
102_76,22434,62200.00000765539,62280.55556322086,62316.66667433642,62425.00000768309,62672.22222993573,7.947833335299995,-36.96557765020043,39.88270910421884,-24.75207694640781,5.9700371160312935,-1.7158265003946247,-12.493594721111904,157.54866192957078,-164.74630308894405,4.589978789079468,247.22222225263977,116.66666668102698,861.1111112170911,144.4444444622277,391.66666671486746,472.22222228033934,355.55555559931236,/
102_77,22744,63069.44445220685,63138.88889665984,63177.77778555351,63266.66667445334,63316.66667445949,3.437948882526798,-35.76544124980754,52.89275329522753,-46.48807065423457,8.133915370396654,-0.1482542003542023,-4.150090839344993,180.57161575388253,-176.92057167144577,51.395042285226495,50.000000006148184,108.33333334665804,850.0000001046137,127.77777779350436,177.77777779965254,247.22222225263977,138.88888890598173,/
102_78,23050,63919.44445231146,63988.88889676445,64027.77778565812,64116.66667455796,64188.88889678907,4.098055880176211,-36.888176586594014,57.36311362098472,-57.6816397746106,17.491697864994414,-0.0491353678167413,-0.8083079665019692,185.3477300066189,-201.9391924021349,133.3444474999345,72.22222223111021,108.33333334666531,833.3333334358977,127.77777779350436,200.00000002461456,269.44444447760907,161.11111113094375,/
102_79,23350,64752.77778574736,64822.22223020035,64861.11111909402,64955.55556355009,65238.888896918295,4.21002413787463,-35.332824423664775,47.56130577636707,-40.13116865720888,5.534324534985831,0.2763864944242291,-12.178667757244332,179.530947465434,-175.24703645128884,-17.764793510936844,283.33333336820215,108.33333334665804,825.000000101536,133.33333334974304,416.6666667179452,486.1111111709324,377.7777778242744,/
102_80,23647,65572.22223029265,65647.2222303019,65686.11111919556,65775.00000809539,65830.55556365779,3.3452625376503398,-32.47205986301938,49.26833018041418,-45.85862560460401,6.97100729624532,1.099083451465413,-0.0696273762119912,166.88804219578253,-190.0345888000725,108.0785007216036,55.55555556240142,113.888888902904,825.0000001015433,127.77777779349708,183.3333333558985,258.33333336513897,144.44444446223497,/
102_81,23944,66394.44445261608,66472.22223040342,66511.1111192971,66602.77778597505,66675.00000820616,3.798828687111066,-33.04559500093065,50.90245030843532,-43.93631774009998,8.29627132079964,2.460879484686726,3.615699952789736,166.77104859354927,-178.79097853337785,138.2093961315326,72.22222223111021,116.6666666810197,805.5555556547042,130.55555557162734,202.77777780273755,280.55555559007917,163.88888890905946,/
102_82,24234,67208.33334160513,67280.55556383624,67316.6666749518,67411.11111940787,67480.55556386086,3.9527000127543954,-36.66350591284074,49.21848406830188,-56.149971264764446,12.891694155142671,1.2300454721804197,1.0355791707482649,173.92163056513058,-188.3278269340005,130.34743774471843,69.4444444529945,108.33333334667259,800.0000000984583,130.55555557162734,200.00000002462184,272.22222225573205,163.88888890905946,/
102_83,24522,68008.33334170359,68077.77778615658,68116.66667505026,68211.11111950633,68455.55556398086,2.654971039076412,-34.887250700296185,47.94700122427785,-30.300757075936566,7.001778302286851,0.2360787593280117,-9.188598765386306,178.44626331840587,-181.27369416344123,9.023848416961505,244.44444447453134,108.33333334667259,841.666666770252,133.33333334974304,377.7777778242744,447.2222222772689,338.8888889305963,/
102_84,24825,68836.11111958325,68919.44445292685,68958.33334182051,69058.33334183283,69333.33334186667,2.4448298793059475,-34.79200690595409,51.99698328791881,-25.20288445074848,6.57912972571148,4.359992906367015,-9.16483533040764,166.3009091592564,-144.27510231996752,-6.274913574512154,275.00000003384775,122.22222223726567,869.4444445514528,138.88888890597445,413.8888889398222,497.22222228342434,375.0000000461587,/
102_85,25138,69725.00000858154,69788.8888974783,69827.77778637197,69930.5555641624,70011.11111972787,3.360517742188672,-35.54256930086514,47.15329975208341,-45.92079847166288,10.699467263846556,-1.706060277338344,-16.399191829173933,161.98444903363222,-161.83270779580687,93.73850777019788,80.55555556547188,102.77777779042663,841.6666667702666,141.66666668409016,222.22222224956204,286.11111114632513,183.3333333558985,/
102_86,25441,70563.88889757368,70633.33334202667,70669.44445314223,70763.8888975983,71016.66667540719,3.29047188509655,-36.20627337479224,50.974017743318406,-35.180678332695734,8.370152187807468,0.4676009393943862,-10.656792979774108,175.04180338848855,-175.17533308713922,5.985353727728759,252.777777808893,105.55555556855688,822.222222323413,130.55555557162734,383.33333338052034,452.77777783351485,347.22222226495796,/
102_87,25737,71375.00000878463,71450.00000879385,71491.66667546565,71586.11111992171,71833.33334217437,2.275669026036895,-35.6700405886338,55.01519720857907,-23.85310844285172,5.045424002494929,2.861717959900272,-16.04922799815249,174.30741096758896,-163.49387510681547,7.805268786089872,247.2222222526616,116.6666666810197,797.2222223203426,136.11111112785875,383.33333338052034,458.33333338974626,341.66666670872655,/
102_88,26024,72180.55556443932,72250.00000889231,72288.88889778599,72383.33334224205,72622.22223116035,4.748473218953996,-34.52442077395308,55.741432734449575,-39.89360397270068,7.136619129330562,0.79723614389331,-8.527129504640838,162.5670306710341,-176.29988388695318,18.077720819456413,238.88888891829993,108.33333334667259,813.8888889890659,133.33333334974304,372.22222226804297,441.6666667210375,333.3333333743649,/
102_89,26317,72994.44445342838,73063.88889788138,73102.77778677506,73200.00000900924,73269.44445346223,3.79943874304005,-36.854695169705664,53.76123356927001,-53.124499794357575,10.594748468935991,1.4324755989583362,-16.594076439221247,161.22417326395322,-172.7305155206327,122.70047993787976,69.4444444529945,108.33333334667259,805.5555556546897,136.11111112785875,205.55555558085325,275.00000003384775,166.66666668717517,/
102_90,26607,73794.44445352684,73869.44445353608,73908.33334242975,74002.77778688582,74275.00000914154,3.933082973943149,-36.86241697331078,53.62345012649021,-30.62350794336721,7.820678143588331,3.243495017133562,-16.42833739259542,172.0647391527171,-172.1168729376221,-24.73880942215431,272.2222222557175,113.888888902904,811.1111112109502,133.33333334974304,405.55555560546054,480.555555614701,366.666666711797,/
102_91,26899,74616.66667585027,74680.55556474702,74719.4444536407,74811.11112031864,75083.33334257436,2.314780301042824,-35.23547280228115,55.43130821346449,-43.3530220786229,8.936679559666704,-3.304225664905779,-2.8451511183746665,168.5114957004183,-182.9347974882353,-19.67305729395761,272.2222222557175,102.77777779042663,961.111111229402,130.55555557162734,402.77777782734483,466.6666667240934,363.88888893366675,/
102_92,27245,75586.11112041403,75677.77778709197,75680.5555648701,75680.5555648701,75730.55556487625,49.8480706061349,-64.55144469647956,-65.98451023986185,-65.98451023986185,24.249937633778725,151.46962206704092,-195.10069097775025,-192.87986592483568,-192.87986592483568,129.44202175369048,50.00000000615546,94.44444445606496,769.4444445391418,2.7777777781302575,52.77777778428572,144.44444446222042,50.00000000615546,/
102_93,27522,76341.66667606257,76413.88889829368,76450.00000940924,76525.00000941847,76558.33334275591,4.148813417559698,-31.373627099064265,38.13164365969448,-1.7786826649101133,20.260145634405355,1.442649094180488,-2.3531156831851803,165.73913260024742,-214.48093650516591,-10.22466639758198,33.333333337446675,108.33333334667259,830.5555556577747,111.1111111247883,144.44444446223497,216.66666669334518,108.33333334667259,f
102_94,27821,77169.44445394223,77241.66667617334,77280.55556506701,77344.44445396376,77380.55556507932,3.23592816432752,-31.90204540145268,50.98287955316368,-15.965026285216917,31.540729677358375,0.5565624532089308,4.4558127270587615,154.05213104685055,-215.64033303501043,8.401988775897692,36.11111111556238,111.1111111247883,811.1111112109502,102.77777779042663,138.888888905989,211.11111113709921,100.00000001231092,f
102_95,28113,77966.66667626257,78052.77778738429,78091.66667627796,78200.00000962462,78405.55556520548,3.2232671426095187,-29.600348032651357,41.85313507757307,-21.639646982096995,7.955102726768407,3.0562342231624604,-13.08436547323693,102.51649465628144,66.89356386594831,-2.7121429733689597,205.55555558085325,125.00000001539593,816.666666767167,147.22222224033612,352.7777778211894,438.8888889429072,313.8888889275113,f
102_96,28407,78788.888898586,78858.33334303899,78908.33334304513,78977.77778749813,79183.33334307898,4.026043257011973,-44.9797822839274,68.56277770691919,-33.84773367494339,14.98092111158444,0.8404557064502735,-21.092652704033068,71.21537191755979,24.56736421586957,7.874948493551199,205.55555558085325,119.44444445913541,816.6666667671816,119.44444445913541,325.00000003998866,394.44444449298317,275.00000003384775,f
102_97,28701,79608.3333431313,79677.77778758429,79725.00000981231,79786.11112093095,79988.88889873368,6.274515211546578,-56.924820344232,99.46449317358004,-41.6956353752506,10.322159553094364,-3.909032970022018,23.361999349133526,-69.73276778805752,21.76942934669411,8.611886794593527,202.77777780273755,116.6666666810197,802.7777778765885,108.33333334665804,311.1111111493956,380.5555556023901,263.8888889213704,f
102_98,28990,80413.888898786,80483.33334323898,80527.7777876889,80586.1111210294,80788.88889883214,6.855091340402621,-57.12969319478493,115.08668681680918,-39.917381082598936,10.73283355007965,-14.812791400417204,110.2567524856292,-115.58220580323704,22.44261205303725,12.66942183618062,202.77777780273755,113.888888902904,397.2222222711134,102.77777779042663,305.5555555931642,375.0000000461441,261.1111111432401,f
102_99,29133,80788.88889883214,80875.00000995386,80925.00000996001,80986.11112107865,81325.00001000924,10.73283355007965,-0.8048485654521393,-0.1948085767124018,-1.885004414391278,61.53089427879697,12.66942183618062,0.3279153421248875,-0.130230394329366,-0.2642454495760778,-120.69079879077891,338.8888889305963,136.1111111278733,397.2222222710989,111.1111111247883,450.0000000553846,536.1111111771024,400.00000004922913,+
102_100,29276,81216.66667666257,81277.7777877812,81322.22223223111,81383.33334334975,81588.88889893061,2.822822223476916,-30.669791807289435,60.623715481679824,-26.383089702461582,12.949485901534269,-16.778252440996003,71.18188158275917,-100.51216829669768,27.3187813982634,8.248064534337397,205.5555555808678,105.55555556854233,850.0000001046283,105.55555556854233,311.11111114941014,372.22222226804297,266.66666669950064,N
102_101,29582,82055.55556565471,82125.0000101077,82172.22223233574,82227.77778789813,82441.66667681334,3.329887717772786,-37.1535167238898,73.18928901289874,-32.652712672222,8.92962083525217,-15.411914812819475,121.84267660583424,-165.4465578311463,33.091561685628285,6.761623651693855,213.88888891521492,116.66666668103426,827.777777879659,102.77777779042663,316.66666670564155,386.11111115863605,269.4444444776018,N
102_102,29880,82872.22223242189,82955.55556576548,83000.0000102154,83055.55556577779,83263.88889913676,5.459685783485297,-39.11810422174244,76.10791991629412,-33.4107348618147,11.814635911923505,-3.5300219639216084,111.78298340630931,-155.00816500416,32.98280120153041,9.433937552168716,208.33333335896896,127.77777779351163,780.5555556516192,100.00000001231092,308.3333333712799,391.66666671486746,263.88888892135583,N
102_103,30161,83661.11112140787,83736.1111214171,83780.55556586702,83836.1111214294,84033.33334367591,3.6335410031028794,-29.922743172756263,64.30368107159514,-28.86906139784194,14.10323058773828,-5.910355018166154,70.59421880814752,-113.19486338650462,24.65967173669632,7.883027445418241,197.22222224650613,119.44444445914996,775.0000000953878,100.00000001231092,297.22222225881706,372.22222226804297,252.777777808893,N
102_104,30440,84436.11112150326,84508.33334373437,84555.55556596241,84608.33334374668,84808.33334377129,3.7223247834324353,-34.2067074182459,72.95479378485959,-31.444228206685565,10.980384952750684,-9.7049645556172,93.04412889615308,-151.7327124282885,27.931132330726825,7.451975368242182,200.0000000246073,119.44444445914996,766.6666667610261,100.00000001231092,300.0000000369182,372.2222222680284,252.77777780887845,N
102_105,30716,85202.77778826428,85277.77778827351,85322.22223272343,85375.0000105077,85572.2222327542,4.263284789454195,-35.24540299961716,76.56822719423194,-32.09048589355343,10.859444944709749,-9.39582574461679,109.2891223582231,-152.16602834620633,29.065861042101016,7.002382132438868,197.22222224649158,119.44444445914996,786.1111112078506,97.22222223419521,294.4444444806868,369.4444444899127,250.00000003076275,N
102_106,30999,85980.55556613779,86063.88889948138,86108.33334393128,86163.88889949369,86369.44445507454,3.428443057917337,-36.28562533628006,77.91576060673731,-33.38154191861758,13.682387355303106,-4.096900722753987,104.98800025855834,-150.37659464132366,33.66510566291369,7.234044763091614,205.55555558085325,127.77777779349708,805.5555556547042,100.00000001231092,305.5555555931642,388.88888893675175,261.1111111432547,N
102_107,31289,86794.44445512685,86866.66667735796,86913.88889958599,86969.44445514839,87177.77778850736,2.917681573362925,-32.02270121864528,65.43803023241935,-29.35859569247267,15.121241136410752,-9.439902683233042,92.93946655332388,-149.495204090681,29.576445418579,6.587693423390043,208.33333335896896,119.44444445913541,825.0000001015433,102.77777779042663,311.1111111493956,383.3333333805058,263.8888889213704,N
102_108,31586,87616.66667745027,87691.66667745949,87738.88889968753,87791.6666774718,87991.66667749643,3.1920796059952665,-35.40074883381413,75.70478062414871,-32.0649485555419,12.019271445535338,-8.516777553803665,104.22938518351783,-159.85830732977308,30.7181861655869,6.81740834424504,200.00000002462184,122.22222223726567,822.222222323413,100.00000001231092,300.00000003693276,375.0000000461587,252.777777808893,N
102_109,31882,88450.00001088616,88513.88889978292,88561.11112201095,88616.66667757335,88825.00001093232,5.310646217070249,-39.23994620184332,76.11382382914968,-33.17422356311916,11.417446460558695,-18.509442880736085,105.87607353655936,-162.1862545777485,34.99191067230605,5.318261373028646,208.33333335896896,111.1111111247883,827.777777879659,102.77777779042663,311.1111111493956,375.0000000461587,263.8888889213704,N
102_110,32180,89275.0000109877,89344.4444554407,89388.8888998906,89444.444455453,89644.44445547761,4.105582529565726,-31.83513477640079,66.7757474704132,-29.439537828833146,14.21864950067592,-9.628368988649903,74.0362165808527,-121.26309095707344,24.81376210003787,8.777095639218686,200.0000000246073,113.888888902904,794.4444445422414,100.00000001231092,300.0000000369182,369.4444444899127,255.5555555870087,N
102_111,32466,90066.66667775181,90138.88889998292,90183.33334443285,90236.1111222171,90416.66667779488,3.729918357789205,-33.50678698359636,75.1169599369868,-30.235399015482148,14.542104234268876,-9.84085479569085,96.14776636405476,-144.33109956445122,26.966870817770157,10.080846698949566,180.5555555777828,116.66666668103426,744.4444445360568,97.22222223418066,277.77777781196346,350.00000004307367,233.3333333620394,N
102_112,32734,90808.33334450977,90883.33334451898,90927.7777889689,90983.33334453127,91172.22223344343,3.894103925009804,-34.08411520242888,74.4688032930538,-31.070145296178417,13.63888133721112,-6.845044876224998,85.41283253433033,-143.7390200155394,29.68139356445736,6.454303788057384,188.88888891215902,119.44444445913541,766.6666667610116,100.00000001229637,288.8888889244554,363.88888893366675,244.44444447453134,N
102_113,33010,91586.11112238326,91650.00001128,91694.44445572991,91750.00001129232,91947.2222335388,3.460966289490312,-33.43258514463744,70.65035650946622,-30.293809642961158,13.69948330972382,-16.570393532631577,90.30304526580451,-136.29165371298905,27.07133481018784,8.319734213713907,197.22222224649158,108.33333334665804,797.2222223203717,100.00000001231092,297.2222222588025,361.11111115555104,252.777777808893,N
102_114,33297,92369.444455813,92447.22223360036,92491.66667805029,92547.22223361266,92758.33334474976,3.8505580487884776,-35.64847390802665,71.47284376596788,-30.77899482691929,12.3546504581956,-7.036379210282335,118.55978045121488,-158.808520471808,33.35313810365728,8.008785162655197,211.11111113709921,122.22222223728022,827.7777778796299,100.00000001229637,311.1111111493956,388.88888893675175,266.66666669947153,N
102_115,33595,93202.7777892489,93275.00001148,93319.44445592992,93375.00001149232,93572.2222337388,2.8659838156184074,-36.983187424993154,72.72429176630995,-28.86710735586148,10.253291015837323,-11.92574670045194,113.4924763241962,-156.7792937655248,34.33822439755882,8.172662510309149,197.22222224647703,116.6666666810197,800.0000000984874,100.00000001231092,297.22222225878795,369.44444448989816,252.77777780887845,N
102_116,33883,94000.00001156924,94075.00001157848,94119.4444560284,94175.00001159078,94558.3333449713,3.416716862272995,-34.70617361834639,70.63482730563317,-30.952634723470712,48.51917471009729,-9.285080948592796,110.25537314610504,-153.7713010363688,32.64813656395706,-99.77095039086872,383.33333338052034,119.44444445916452,486.11111117091787,100.00000001229637,483.3333333928167,558.3333334020572,438.88888894289266,N
102_117,34058,94558.3333449713,94602.7777894212,94605.55556719932,94611.11112275557,94694.44445609915,48.51917471009729,-69.46437406712668,-73.86631110180534,-77.11207484279757,37.241075010363154,-99.77095039086872,255.79990118142095,253.4343957514912,227.9568400283843,-21.218331705695103,83.33333334358758,47.2222222280252,438.88888894292177,8.333333334361669,91.66666667794925,136.11111112785875,88.88888889983355,V
102_118,34216,94822.22223389268,94933.33334501744,95044.44445614224,95111.1111228171,95486.11112286328,10.643194859594225,-5.5056115985568015,0.6291211672921179,-2.2390805265060827,50.79088173995089,-43.12362149821266,10.81819664155246,-0.538049799016456,4.456363015137229,163.22792000691766,375.0000000461732,222.22222224956204,441.6666667210375,177.7777777996671,552.7777778458403,663.8888889705995,441.6666667210375,+
102_119,34375,95366.66667840412,95444.44445619146,95486.11112286328,95580.55556731932,95850.00001179692,4.179000224809308,-33.158380613820825,50.79088173995089,-18.15549797123937,5.392342858379365,3.680105294704612,-15.934857584145227,163.22792000691766,-146.0536985628045,-2.751618830200385,269.4444444776018,119.44444445916452,811.1111112109211,136.11111112785875,405.55555560546054,483.33333339280216,363.88888893363765,/
102_120,34667,96186.1111229494,96258.33334518052,96297.2222340742,96394.44445630838,96636.1111230048,4.064877312674287,-32.39229983688158,46.3217275389122,-31.192366152735232,7.736932926884076,1.9581249365019493,-11.799659961735562,168.32490797473525,-175.73697630943303,7.456851284488228,241.66666669641563,111.11111112480285,786.1111112078797,136.11111112785875,377.7777778242744,450.00000005539914,338.8888889305963,/
102_121,34950,96980.55556749164,97044.4444563884,97083.33334528208,97177.77778973812,97411.1111231002,2.7733969192420176,-30.94639088149358,44.07987318948691,-24.655951230534782,6.766623156816036,-2.3077261199497943,-7.478759580475108,171.6315462090549,-169.34921879656176,12.797504812746082,233.33333336208307,102.77777779044118,800.0000000984437,133.33333334971394,366.666666711797,430.5555556085601,327.7777778181189,/
102_122,35238,97777.77778981198,97844.44445648685,97883.33334538052,97975.00001205847,98208.33334542051,3.967577646981541,-34.67839918972523,57.24342925357622,-34.32805233805216,6.335854159504289,-0.3612821279222339,-9.99232195658994,169.43702648662824,-179.73322225511347,19.44880782262864,233.3333333620394,105.55555556854233,827.777777879659,130.55555557162734,363.88888893366675,430.555555608531,325.00000003998866,/
102_123,35536,98594.44445657916,98672.2222343665,98711.11112326018,98805.55556771623,98863.88890105677,2.21228322636457,-33.33602576296089,52.42597631058334,-41.48059354698956,7.084015142985763,2.450511114207197,-11.770532200145436,160.93682902187183,-172.80422097277352,106.25177862562448,58.33333334053168,116.6666666810197,866.666666773337,133.3333333497285,191.66666669026017,269.4444444776018,152.7777777965821,/
102_124,35848,99469.44445668683,99538.88890113984,99577.77779003352,99680.55556782396,99963.88890119214,3.198281622024767,-33.78938818194588,51.75653879128899,-33.19276501247517,7.22119796315009,1.4639583669354963,-19.329010690016997,159.90780940228842,-173.13913076709164,-33.85457833300024,283.3333333681803,108.33333334668714,847.2222223264835,141.66666668411926,425.0000000522996,494.44444450530864,386.1111111586215,/
102_125,36153,100311.1111234571,100386.11112346634,100425.00001236,100519.44445681608,100563.888901266,3.303015858286223,-30.656855267466625,49.46315252550744,-47.64969541523124,19.71722351695576,1.816093478862767,-13.091616799488277,165.01445048922406,-204.0930316400949,95.69845511079777,44.4444444499095,113.888888902904,830.5555556577892,133.33333334974304,177.77777779965254,252.777777808893,138.888888905989,f
102_126,36452,101147.22223467112,101216.66667912412,101255.5555680178,101338.88890136138,101377.77779025506,3.366252704628544,-33.428060416933114,55.78886053816404,-38.73413854074173,23.782766810016145,0.7335494342276649,-8.656484339025416,174.42106329049295,-239.2647864322238,82.70649809752477,38.888888893678086,108.33333334667259,841.666666770252,122.22222223726567,161.11111113094375,230.55555558393826,122.22222223726567,f
102_127,36755,101980.55556810704,102058.33334589437,102097.22223478805,102161.1111236848,102197.22223480036,3.634921224172212,-32.18944146182352,54.288101725558825,-17.261355369599766,28.50887631849268,2.516509272153856,-4.1682265662132725,168.47957202079272,-227.62227631029504,-4.98172256713144,36.11111111556238,116.66666668100515,800.0000000984583,102.77777779042663,138.888888905989,216.66666669331607,100.00000001231092,f
102_128,37043,102788.88890153985,102858.33334599284,102897.2222348865,102941.66667933644,102980.55556823008,3.760264254518959,-29.202746632547345,45.90394495019375,-8.822206081165024,39.59402978549818,-0.8594318850674653,0.3374221602126991,145.94317117430808,-145.40745902492836,-76.24178104391129,38.88888889363443,108.33333334665804,786.1111112078506,83.33333334360213,122.22222223723656,191.66666669023107,83.33333334357303,f
102_129,37326,103569.44445719146,103644.44445720068,103683.33334609435,103791.66667944104,103983.33334613129,3.55746244496686,-29.55514086776794,39.592556391579386,-21.74438237384317,13.199066197103894,2.1724773269642257,-6.539910089487147,115.02386602637212,78.77161580659075,-3.462318881973625,191.66666669024562,113.88888890288945,863.8888889952505,147.22222224036523,338.88888893061085,413.8888889398222,300.00000003693276,f
102_130,37637,104397.22223507112,104466.66667952412,104547.2222350896,104600.00001287386,104788.888901786,2.782518226292206,-35.707398661859,58.63657748041601,-35.3284407432097,15.640859909489976,1.073538117266433,-24.08225816243985,-193.40050225810324,45.5174319236356,8.423336564595274,188.88888891214447,150.00000001848093,805.5555556546751,133.33333334974304,322.2222222618875,391.666666714882,241.66666669640108,f
102_131,37927,105233.33334628514,105308.33334629436,105352.77779074428,105427.77779075352,105633.33334633436,5.248513143398368,-48.98833519863462,65.27772468936239,-38.12201265236367,15.353950955173788,3.78542208082823,-20.65047670671192,145.63131292561394,29.934502628952373,7.548752620860439,205.5555555808387,119.44444445913541,869.4444445514382,119.44444445916452,325.0000000400032,400.0000000492146,280.55555559007917,f
102_132,38240,106105.55556861473,106177.77779084582,106222.22223529572,106288.8889019706,106488.88890199522,5.6707231587891895,-58.84701341069778,100.70413952121952,-43.310870322245535,15.318863422154662,-1.6781995554554912,15.266649667629824,-5.658239967554328,28.217072819013246,8.941550613584127,200.00000002462184,116.6666666809906,833.3333334359195,111.11111112477374,311.1111111493956,383.33333338049124,266.66666669950064,f
102_133,38540,106941.66667982872,107013.88890205984,107055.55556873164,107113.88890207215,107305.5555687624,6.393510716247001,-66.29620090639513,132.1825853244113,-46.396891058202016,13.86794972246468,-10.942208361402033,102.1296300954044,-118.59105767510069,27.5893957138936,8.231049634560486,191.66666669024562,113.88888890291855,394.44444449298317,100.00000001231092,291.66666670255654,363.8888889336813,250.00000003076275,f
102_134,38682,107305.5555687624,107372.22223543728,107450.00001322462,107508.33334656514,107844.44445771762,13.86794972246468,-2.3387061307404786,-0.4105502287567458,-1.97075030260016,78.75800065091146,8.231049634560486,0.6144602651005049,0.0790416465836917,0.8470570499959275,-167.0224424002187,336.1111111524806,144.44444446222042,394.4444444929977,136.11111112785875,472.22222228033934,538.8888889552181,394.4444444929977,+
102_135,38824,107733.33334659284,107797.22223548958,107844.44445771762,107897.22223550187,108091.66667997028,5.05569050464331,-37.72241441642365,78.75800065091146,-33.36323867088602,15.945989325135754,-17.555728926506664,100.45060351594068,-167.0224424002187,35.76056651140245,11.06064800688252,194.44444446840498,111.11111112477374,811.1111112109356,100.00000001229637,294.44444448070135,358.33333337743534,247.2222222526616,N
102_136,39116,108536.11112446942,108608.33334670051,108655.55556892855,108711.11112449096,108902.77779118122,3.011103876848196,-33.57824468646528,67.62533850008998,-29.682810638090658,17.359709200148217,-10.206098397197602,99.9229968797464,-163.60493094137215,35.22723199721031,10.298243073774469,191.66666669026017,119.44444445913541,791.6666667641111,102.77777779044118,294.44444448070135,366.666666711797,247.2222222526616,N
102_137,39401,109327.77779123352,109400.00001346464,109447.22223569266,109500.00001347694,109688.88890238908,3.45347019958346,-34.80171878462841,74.92321825431577,-31.13816180794924,15.43520285538583,-11.46399471693489,111.25718348090209,-167.7910655439145,33.67137184440091,8.453768083414655,188.88888891214447,119.44444445914996,783.3333334297349,100.00000001229637,288.88888892444083,361.1111111555656,241.66666669641563,N
102_138,39683,110113.88890244138,110183.33334689436,110230.5555691224,110283.33334690669,110480.55556915318,3.512180000810369,-38.42326149987561,79.49573997364698,-33.22243402818641,16.063636259623063,-14.38230424552512,111.63809903728432,-168.9096972662253,34.11121422590513,10.99479072847306,197.22222224649158,116.6666666810197,816.6666667671816,100.00000001232547,297.22222225881706,366.666666711797,250.0000000307773,N
102_139,39977,110930.55556920856,111002.77779143969,111047.22223588958,111105.5555692301,111302.7777914766,4.14839987340717,-36.114164517528906,71.64509314592179,-30.880546472456192,16.102596109045418,-12.271349596809191,118.16549033098524,-155.051844263075,35.64676873290139,9.416980718528077,197.22222224650613,116.6666666810197,841.666666770252,102.77777779041207,300.0000000369182,372.22222226804297,255.55555558702326,N
102_140,40280,111769.4444582007,111841.6666804318,111888.88890265983,111944.44445822223,112147.22223602496,3.5283354428216382,-36.62535769856905,73.80202260644812,-31.879515524165555,15.547214976901593,-12.665372404628576,121.58793256947504,-175.6748146553052,39.22478721554653,7.601384015162917,202.777777802723,119.44444445913541,858.3333334389608,102.77777779044118,305.5555555931642,377.77777782425983,258.3333333651244,N
102_141,40589,112627.77779163967,112700.00001387078,112747.2222360988,112802.7777916612,112997.2222361296,3.708515829273674,-35.98920314665782,74.66231207168914,-31.932971981572877,16.012169568210247,-12.80081996304204,121.44066020976707,-179.8116989396256,38.6321194677831,7.209081448025995,194.44444446840498,119.44444445912086,808.333333432849,102.77777779041207,297.22222225881706,369.44444448992726,250.0000000308064,N
102_142,40880,113438.8889028506,113508.3333473036,113555.55556953164,113608.33334731591,113800.00001400616,3.673150066140137,-34.89231935860528,74.98467935247086,-32.02189108118552,17.991319174432025,-13.147133119204517,107.73391707103757,-165.0055109654825,35.10440379212971,11.80826620433357,191.66666669024562,116.66666668104881,769.4444445391564,100.00000001231092,291.66666670255654,361.1111111555656,244.44444447451679,N
102_143,41157,114200.0000140554,114277.77779184276,114325.0000140708,114377.77779185506,114569.44445854532,3.182475750875251,-32.55963133757389,69.15236099633626,-30.42108790782618,17.85418422532059,-7.103530658737458,113.00395638809098,-168.30272270664946,34.86313036809062,10.020237557333076,191.66666669026017,125.00000001539593,811.1111112109211,100.00000001229637,291.66666670255654,369.4444444899127,244.44444447451679,N
102_144,41449,115022.22223637882,115091.6666808318,115136.11112528172,115194.44445862224,115383.33334753435,6.055728808548155,-57.45222208120553,115.40379366892222,-39.68519894482301,15.5534031694941,-17.3824246832681,129.44397217711446,-134.1445896233812,26.897954089473497,7.279103735885581,188.88888891211536,113.888888902904,786.1111112078797,102.77777779044118,291.66666670255654,361.1111111555365,247.2222222526325,f
102_145,41732,115802.77779203044,115875.00001426156,115922.2222364896,115977.77779205196,116166.66668096412,4.906075070365575,-38.39834818141179,78.85213412884391,-33.423996630364535,16.73957394377028,-10.865383808949495,109.81402591668012,-173.85156527261756,39.315178217496594,9.087657645499656,188.88888891215902,119.44444445916452,783.3333334297349,102.77777779039752,291.66666670255654,363.8888889336813,244.44444447451679,N
102_146,42014,116588.8889032383,116655.55556991318,116705.55556991934,116761.11112548172,116966.66668106258,3.686445385522251,-33.36212214306707,68.34783593256415,-30.183329434086723,17.87293043581199,-13.941756096395927,94.78015452832396,-165.33437799423683,36.561306048521736,11.66808976466291,205.55555558085325,116.66666668103426,838.8888889921509,105.55555556854233,311.1111111493956,377.7777778242744,261.1111111432401,N
102_147,42316,117427.77779223044,117500.00001446156,117544.44445891149,117602.77779225196,117805.55557005473,5.454949164975665,-55.906564346593775,109.6761674089098,-38.01004331675153,14.586291438018453,-14.729941633555864,131.0543478660931,-132.85983572964304,26.89654086069941,8.747138393208308,202.77777780276665,116.66666668104881,833.3333334358758,102.77777779039752,305.5555555931642,377.77777782428893,261.1111111432401,f
102_148,42616,118269.44445900068,118333.33334789744,118377.77779234736,118436.11112568788,118641.66668126872,5.095880518496431,-38.24588354704402,72.33852953162078,-31.620199589163352,15.380629476884128,-22.409873995755955,135.09576282857887,-173.84863834059894,39.86544600765693,9.051954593862966,205.5555555808387,108.33333334668714,833.3333334359195,102.77777779044118,308.3333333712799,372.22222226804297,263.88888892135583,N
102_149,42916,119097.22223688036,119163.88890355524,119211.11112578328,119266.66668134564,119469.4444591484,4.383649249355149,-34.063672297847994,70.13020150894475,-31.27042081677758,16.09792401859601,-14.879037312180348,103.5451585914674,-161.92258489276915,36.31068709658393,10.99068096502999,202.77777780276665,113.88888890291855,797.2222223203134,102.77777779039752,305.5555555931642,372.22222226804297,258.3333333651244,N
102_150,43203,119888.88890364446,119961.11112587556,120008.3333481036,120063.888903666,120258.33334813436,3.434069209768825,-32.18846368311618,67.4159980836854,-28.847921225897924,17.42685514825553,-11.9205902492463,110.34586770957112,-161.25441150589174,33.71837299847181,10.145962410079516,194.44444446836133,119.44444445913541,772.2222223172867,102.77777779044118,297.2222222588025,369.44444448989816,250.00000003076275,N
102_151,43481,120661.11112596172,120733.33334819284,120780.55557042088,120836.11112598324,121030.55557045164,3.893683664332137,-35.018327397628184,72.56771347628825,-30.572025028596315,14.702024175263276,-10.09157163341028,99.12207207411328,-163.68262900182293,36.13818492264025,9.820294078644586,194.44444446840498,119.44444445916452,794.4444445422123,102.77777779039752,297.2222222588025,369.44444448992726,250.00000003076275,N
102_152,43767,121461.1111260602,121527.77779273504,121575.0000149631,121630.55557052548,121841.66668166258,2.6947354213616497,-32.6187724329931,66.80111767464491,-29.68474107330826,15.9486280738944,-15.028342027067014,101.85079274909562,-159.59096737237192,36.554029709180064,11.30496042743806,211.11111113709921,113.88888890288945,802.7777778765885,102.77777779044118,313.8888889275404,380.55555560237553,266.6666666994861,N
102_153,44056,122258.33334838052,122330.55557061164,122377.77779283968,122433.33334840208,122647.22223731728,3.655400027367439,-32.55627506744122,63.695960104677965,-28.39602156896928,14.8189642416618,-13.192180843146424,125.62337678441368,-174.41786376298643,37.68498847742911,8.789442685285106,213.88888891520037,119.44444445916452,819.4444445452827,102.77777779044118,316.66666670564155,388.8888889367663,269.4444444776018,N
102_154,44351,123080.55557070396,123150.00001515694,123197.22223738497,123252.77779294737,123466.66668186258,3.925780776673624,-36.82845703269348,72.7846486679894,-32.456733371011644,12.12364789226725,-14.529922700056767,119.52440269607467,-176.33589104588032,39.13063583697567,8.723728239154244,213.88888891521492,116.66666668100515,830.5555556577892,102.77777779042663,316.66666670564155,386.1111111586215,269.44444447761634,N
102_155,44650,123900.00001524924,123983.33334859285,124027.77779304275,124086.11112638326,124297.22223752036,3.501833174995881,-33.82578143884675,68.41383554483923,-31.33260488763661,15.01251525170988,-4.281171966995091,124.60741600193296,-157.37272173236738,35.436706338718146,9.42545991779355,211.11111113709921,127.77777779351163,819.4444445452827,102.77777779041207,313.8888889275113,397.2222222711134,269.4444444776018,N
102_156,44945,124727.7777931289,124800.00001536,124847.22223758804,124902.77779315044,125122.2222376219,3.611901195782922,-34.412870505212204,68.8302134461481,-30.237949355188668,14.114898333712004,-12.321868778149588,119.75678886927103,-171.55127252729676,36.81676093267001,7.912815908427334,219.44444447146088,119.44444445913541,830.5555556578038,102.77777779044118,322.22222226190206,394.4444444929977,275.0000000338623,N
102_157,45244,125550.00001545231,125630.5555710178,125677.77779324584,125730.5555710301,125936.11112661097,5.039845963747109,-35.06917087689368,71.48973716157018,-29.54570759601468,13.423246126215536,-5.849932091071018,121.44363848037216,-168.22466548956828,37.81179532667646,9.968327493038531,205.5555555808678,127.77777779352618,769.4444445391127,100.00000001229637,305.5555555931642,386.1111111586506,258.3333333651244,N
102_158,45521,126327.77779332583,126400.00001555694,126447.22223778495,126502.77779334736,126702.77779337198,3.878435794625834,-30.47885372301994,63.1033428077802,-27.842605110005717,16.810461018172,-8.721262355077048,84.79926682485338,-149.06780330795152,33.891897451022885,12.898148179221147,200.00000002462184,119.44444445912086,772.2222223172867,102.77777779041207,302.7777778150339,375.0000000461441,255.55555558702326,N
102_159,45799,127102.7777934212,127175.00001565232,127219.44446010224,127275.00001566464,127469.444460133,3.1198856526281524,-32.62469414507157,69.31907208124589,-29.34442352142124,15.557535665170544,-11.708835718341737,114.15414502535523,-158.4163627829657,33.10495978184019,8.86999055018379,194.44444446836133,116.66666668103426,802.7777778765594,100.00000001232547,294.4444444806868,366.666666711797,250.00000003076275,N
102_160,46088,127905.5555712978,127977.7777935289,128022.2222379788,128077.77779354122,128280.55557134394,3.20101135810244,-34.14461478661556,71.85635718036941,-31.298817263521546,13.885957995743263,-12.679928689123804,122.68474561050768,-166.1338133761298,37.16565387909789,8.02667600664518,202.777777802723,116.66666668100515,811.1111112109647,100.00000001231092,302.7777778150339,375.0000000461441,258.33333336513897,N
102_161,46380,128713.8889047306,128786.11112696172,128833.33334918976,128888.88890475217,129105.55557144548,4.2519752086752325,-31.22925714039804,64.68127152422265,-28.691088383942056,14.578998453241445,-8.798453980846617,89.0889497480556,-150.59472570671795,33.4902274076089,9.5374642308936,216.66666669331607,119.44444445916452,830.5555556577747,102.77777779044118,319.44444448375725,391.666666714882,272.2222222557175,N
102_162,46679,129547.2222381665,129619.44446039762,129663.88890484754,129719.44446040993,129927.77779376892,4.018471638718809,-34.103132223047695,69.41175235764808,-29.51139258644948,14.974368889603475,-12.57481889469911,120.94067809911088,-159.618576483838,33.624438960677566,7.670686458140299,208.33333335899806,116.66666668103426,830.5555556577747,100.00000001231092,308.333333371309,380.5555556024192,263.88888892138493,N
102_163,46978,130375.00001604616,130447.22223827727,130494.44446050531,130550.0000160677,130766.66668276105,3.935850668016336,-36.97711935326056,72.07025494968799,-31.65376702843501,13.688217037345646,-13.229209271136378,125.82235066456492,-167.03720346280505,39.20843610419205,10.205936528557006,216.66666669334518,119.44444445914996,805.5555556547042,102.77777779042663,319.4444444837718,391.666666714882,272.22222225573205,N
102_164,47268,131188.88890503522,131255.5555717101,131300.00001616002,131358.33334950052,131566.6666828595,2.709430295647181,-31.21494993583454,63.50793765855202,-28.18418036964649,14.68906921486708,-17.40965308935746,117.94793551286712,-153.9296079501973,33.140426118427094,9.133012081192872,208.3333333589835,111.11111112480285,813.8888889890513,102.77777779041207,311.1111111493956,377.77777782428893,266.6666666994861,N
102_165,47561,132000.00001624617,132066.66668292103,132113.88890514907,132169.44446071147,132366.66668295796,3.3543482212885247,-35.6734005157057,71.5706050436322,-30.55995759810006,12.130213836305156,-17.04583119454013,113.83060954965812,-164.29076684558316,35.359507693322485,7.089353064753816,197.22222224649158,113.888888902904,777.7777778735035,102.77777779044118,300.00000003693276,366.666666711797,252.777777808893,N
102_166,47841,132772.22223856344,132844.44446079453,132891.66668302257,132944.44446080684,133141.66668305334,5.218844400320389,-33.82453561642378,74.1246983041381,-31.743817595340115,15.223417227523749,-8.01659358501723,80.97740176078257,-147.66904864901127,31.36376740548261,10.456530079708214,197.22222224649158,119.44444445913541,763.8888889829104,100.00000001231092,297.2222222588025,369.44444448989816,250.00000003076275,N
102_167,48116,133538.88890532445,133608.33334977744,133655.55557200548,133711.11112756788,133905.55557203625,3.259878242533583,-30.841704289548694,65.19907493699132,-28.106778415997404,15.1915317821795,-10.201064985099585,83.34950923742521,-147.6663669044396,30.81439510652708,9.919886080239433,194.44444446836133,116.66666668103426,802.7777778765885,102.77777779044118,297.2222222588025,366.666666711797,250.00000003076275,N
102_168,48405,134341.66668320104,134411.11112765403,134458.33334988207,134513.88890544447,134725.00001658156,3.3457442729350806,-36.72972590744264,73.43630719538821,-32.18707152486581,13.47698383615801,-14.941893610649572,123.68813930809276,-172.0467452799449,37.08847502810595,6.819121718943636,211.11111113708466,116.66666668103426,844.4444445483678,102.77777779044118,313.88888892752584,383.33333338052034,266.6666666994861,N
102_169,48709,135166.66668330258,135255.5555722024,135302.77779443044,135355.5555722147,135558.33335001746,4.164974628805806,-34.14355509104947,73.54496346515239,-30.89126481365956,13.16407244162209,-0.9367687758737504,109.48015097948335,-157.34580927598034,34.45806783219337,8.811202460234739,202.7777778027521,136.11111112785875,819.4444445453119,100.00000001231092,302.777777815063,391.666666714882,255.55555558702326,N
102_170,49004,136005.55557229472,136075.0000167477,136122.22223897575,136175.00001676002,136372.2222390065,2.9257819169726145,-32.027040438445496,65.27969070022421,-28.28822161725074,15.343498827966828,-10.752037177397572,88.57661136740677,-141.61020743709676,27.620675685529832,9.943976725331495,197.22222224649158,116.66666668103426,802.7777778765594,100.00000001231092,297.2222222588025,366.666666711797,250.00000003076275,N
102_171,49293,136811.1111279494,136880.5555724024,136925.0000168523,136980.5555724147,137186.11112799557,3.920516503871049,-34.35256710658074,73.44283237119834,-31.2155674888674,13.904106183956417,-14.184138258502724,112.12812007566616,-152.2751836933867,31.503860185136134,7.900409515224954,205.55555558085325,113.888888902904,794.4444445422268,100.00000001231092,305.5555555931642,375.0000000461587,261.1111111432547,N
102_172,49579,137608.33335026976,137675.00001694463,137719.44446139454,137775.00001695694,137961.11112809097,3.225614975486077,-33.48820634171347,74.26528610068094,-32.16839604764759,12.54812972998858,-13.25513725031058,91.56276578742865,-144.50299258730763,31.416088333456152,8.28167439417428,186.11111113402876,111.11111112477374,775.0000000954024,100.00000001231092,286.1111111463397,352.7777778212039,241.66666669643018,N
102_173,49858,138377.7777948089,138450.00001704,138494.44446148994,138550.0000170523,138752.77779485506,3.5111624272562603,-31.18836682153412,65.74787516077866,-28.875234653391587,15.897521748636194,-8.113237931060818,78.32504136272742,-126.2665272420776,27.990481256615844,11.137697012707854,202.7777778027521,116.66666668103426,791.6666667640966,100.00000001231092,302.777777815063,375.0000000461587,258.3333333651244,N
102_174,50143,139172.22223935113,139241.66668380413,139286.11112825404,139338.8889060383,139527.77779495044,3.5040312006775958,-33.573761908072015,73.6984792818818,-30.52462583899573,15.085677199194503,-13.154671641108571,103.32687556914568,-146.2896780217769,29.338782224030425,9.55356521266277,188.88888891212991,113.888888902904,766.6666667610116,97.22222223418066,286.1111111463106,355.5555555993051,241.66666669640108,N
102_175,50419,139922.22223944342,140005.55557278704,140052.77779501505,140105.55557279932,140286.11112837712,2.0106678458041074,-33.43672323223206,73.87716110070573,-30.734002526292837,13.165716788055088,-2.828456105429696,89.3343500069929,-149.76493504524325,33.03591691185021,6.906307024955943,180.55555557779735,130.55555557162734,783.333333429764,100.00000001228182,280.55555559007917,363.88888893369585,233.33333336206852,N
102_176,50701,140708.3333506513,140791.66668399487,140836.1111284448,140894.44446178532,141116.6666840349,4.604941502880928,-32.43216163266838,64.39077226795303,-28.19983476797695,14.258680493130196,-2.3377560511967665,97.94325547072008,-135.15275493320368,31.873032353441918,10.181368159921412,222.2222222495766,127.77777779352618,866.6666667732934,102.77777779044118,325.00000004001777,408.33333338360535,280.55555559007917,N
102_177,51013,141586.1111285371,141655.5555729901,141702.7777952181,141758.33335078054,141966.6666841395,4.355035024532712,-35.757842115715505,69.65960527123929,-31.2001027141374,14.80035136421799,-14.409398690936678,111.85104157035822,-162.12785825580949,35.253734836341245,9.424586323137046,208.3333333589544,116.66666668100515,833.333333435934,102.77777779044118,311.1111111493956,380.5555556023901,263.88888892138493,N
102_178,51313,142386.11112863556,142491.66668420413,142536.11112865404,142588.8889064383,142788.88890646293,3.235944923872984,-37.97607725122638,75.68513652512604,-33.542958972615274,13.78404786313923,2.7582988317059924,116.72127134158282,-154.57413981196268,33.05879640223451,10.234765076933,200.00000002462184,150.00000001848093,788.8888889859663,97.22222223418066,297.2222222588025,402.77777782737394,252.777777808893,N
102_179,51597,143205.55557318087,143280.5555731901,143325.00001764,143380.5555732024,143577.7777954489,4.178108831817688,-33.20910637596132,67.23221402825764,-30.105118371062893,16.593547851161084,-8.18188338188345,106.32388641111255,-147.95168799354477,32.026892272450375,11.648790538689688,197.22222224649158,119.44444445913541,791.6666667641257,100.00000001231092,297.2222222588025,372.2222222680284,252.777777808893,N
102_180,51882,144000.0000177231,144072.2222399542,144116.66668440413,144172.2222399665,144358.33335110053,3.52191105399062,-34.06089453584506,71.67290122224743,-30.30763353428725,16.5186033386153,-10.257621619517506,97.4868816131288,-146.15320006832562,31.600993264048505,9.579774274426065,186.11111113402876,116.66666668103426,775.0000000953733,100.00000001231092,286.1111111463397,358.33333337743534,241.66666669640108,N
102_181,52161,144766.6666844841,144844.44446227147,144891.6666844995,144941.66668450565,145133.3333511959,2.254368954137488,-33.98591321837787,73.44864655199609,-32.01026112009512,13.463546977529838,-5.124527002347072,86.5866487005707,-142.65531354658634,29.62330919574425,9.181578349089513,191.66666669026017,125.00000001539593,777.7777778735035,97.22222223418066,288.88888892444083,366.666666711797,241.66666669640108,N
102_182,52441,145555.5555734701,145622.22224014497,145669.444462373,145725.0000179354,145916.66668462567,3.2465643895463105,-29.915746659615703,63.24584124482674,-27.23439827292487,15.886528222026394,-12.115501986584473,83.85639558229693,-143.36067225847435,29.060752441896568,11.585801212996383,191.66666669026017,113.888888902904,786.1111112078652,102.77777779044118,294.44444448070135,361.1111111555656,247.2222222526616,N
102_183,52724,146344.44446245607,146413.88890690907,146455.55557358087,146511.11112914328,146702.7777958335,4.115469387833401,-36.67972045754811,73.42030822554902,-31.60119581801021,12.329299465875142,-15.331003715446595,122.82809596194916,-147.2756510724275,30.81161502690954,8.685292521088236,191.66666669023107,111.11111112480285,800.0000000984583,97.22222223420977,288.88888892444083,358.33333337743534,247.2222222526325,N
102_184,53012,147127.77779588584,147208.3333514513,147255.55557367933,147311.11112924173,147525.00001815695,3.4084228054921395,-34.96872616752008,69.60636898083243,-29.864281971844974,15.43706830980487,-5.096581425228659,104.07315854984486,-151.03795347617182,34.215905324683014,9.026218686888608,213.88888891521492,127.77777779349708,850.0000001046283,102.77777779044118,316.6666667056561,397.2222222711134,269.44444447761634,N
102_185,53318,147988.88890710293,148058.33335155592,148105.55557378396,148163.88890712446,148375.00001826155,3.703000092520425,-35.134522346429584,68.0652974376131,-29.50946663150694,14.301739178587782,-14.408077058332443,116.37084064074156,-161.0272505201196,35.3883049225947,7.9074127268691905,211.11111113708466,116.66666668103426,825.0000001015142,105.55555556854233,316.666666705627,386.1111111586215,269.44444447758724,N
102_186,53615,148808.3333516482,148883.33335165746,148930.55557388547,148983.33335166975,149188.88890725063,4.932225597708683,-38.73850718421979,73.87598975918245,-31.924866659938136,15.057075803804455,-8.84333343216827,109.68283125279449,-163.06048958718736,37.39677915812196,9.69719692088348,205.55555558088236,122.22222223726567,772.2222223172721,100.00000001228182,305.5555555931642,380.5555556024192,258.3333333651535,N
102_187,53893,149586.1111295217,149655.5555739747,149702.77779620275,149758.33335176515,149952.7777962335,3.451407932582184,-33.29854548914207,67.61423432301056,-29.81390231572936,16.66245751510009,-11.709310550569194,94.0594378304148,-150.11770580324702,31.84945793543202,12.989568870637486,194.44444446836133,116.66666668103426,780.5555556516338,102.77777779044118,297.2222222588025,366.666666711797,250.00000003076275,N
102_188,54174,150366.66668517335,150438.88890740447,150483.33335185438,150538.88890741678,150727.7777963289,4.134039897150172,-36.06172231497143,73.68717266470405,-31.676237577898007,15.165722294647928,-13.401878226265657,126.06774237380142,-159.04970342736368,34.239301212224575,10.038675408920728,188.88888891212991,116.66666668103426,769.4444445391418,100.00000001231092,288.88888892444083,361.1111111555656,244.44444447453134,N
102_189,54451,151127.77779637813,151205.55557416548,151252.77779639352,151308.33335195592,151494.44446308992,4.652278517316194,-35.62602745611336,74.81518238638971,-32.449902699830126,14.835636448596802,-8.086469208248422,118.37996349143812,-167.22031403226003,37.32148615697343,8.26813351113454,186.11111113399966,125.00000001539593,783.3333334297349,102.77777779044118,288.88888892444083,366.666666711797,241.66666669640108,N
102_190,54733,151891.66668536104,151988.88890759522,152036.11112982326,152091.66668538566,152291.66668541028,3.790706810548272,-34.80053072268538,73.00642178312772,-31.91401871049735,15.939992455502304,1.8946056332171304,105.80424592386768,-156.2959675607744,35.30270991782364,11.176133848539724,200.00000002462184,144.44444446222042,794.4444445422268,102.77777779044118,302.777777815063,400.0000000492437,255.55555558702326,N
102_191,55019,152719.4444632407,152786.11112991555,152830.55557436548,152888.888907706,153102.7777966212,3.6504477018281647,-33.56779477830309,64.6312423799371,-27.95421568303899,14.801841821840794,-17.011464483084275,117.81768471348106,-157.61332465160626,34.46254432843098,8.954495489882211,213.88888891521492,111.11111112477374,822.222222323413,102.77777779044118,316.6666667056561,383.33333338049124,272.2222222557175,N
102_192,55315,153538.888907786,153605.55557446086,153652.7777966889,153708.3333522513,153919.44446338838,3.657575898201372,-35.59798020511277,71.30949079349583,-29.740962109678428,15.112120156430883,-16.384460648245984,108.16363476443624,-163.38730719387806,35.90626854421829,8.223505836778935,211.11111113708466,113.888888902904,841.6666667702666,102.77777779044118,313.88888892752584,380.5555556023901,266.6666666994861,N
102_193,55618,154369.44446344377,154447.22224123112,154494.44446345916,154550.00001902157,154763.88890793678,3.264611607765847,-37.008958183625104,73.1044932166258,-32.36323960689057,14.89457065547254,-8.963738919672718,127.1756344535878,-172.63244329288415,40.884831339532646,9.509743300883144,213.88888891521492,125.00000001539593,813.8888889890513,102.77777779044118,316.6666667056561,394.44444449301227,269.44444447761634,N
102_194,55911,155186.11113021095,155261.11113022018,155308.33335244822,155363.88890801062,155569.44446359147,3.934974989056957,-32.8504304327721,63.57864800279263,-28.649911985367417,15.478197776094705,-8.142963340441298,103.51570275332276,-161.13771441586826,35.2182509662766,12.37009846006444,205.55555558085325,122.22222223726567,780.5555556516338,102.77777779044118,308.33333337129443,383.33333338052034,261.1111111432547,N
102_195,56192,155972.2222414188,156044.44446364994,156088.88890809985,156144.44446366225,156347.22224146497,4.201994630981877,-34.89815700075543,71.40789062965825,-30.06914703802429,12.54601140023304,-11.243661425179294,105.70431229022336,-155.59220566715166,34.12005723841347,8.498202686205978,202.777777802723,116.66666668103426,769.4444445391418,100.00000001231092,302.7777778150339,375.0000000461587,258.3333333651244,N
102_196,56469,156713.88890817677,156811.11113041095,156858.333352639,156913.8889082014,157105.55557489165,2.863577723275929,-35.16182475020849,73.91313901883419,-31.952761132378058,14.398488486448498,1.5658047262609298,96.35599630156432,-161.01135331386783,36.50177351380345,10.545941248745862,191.66666669026017,144.44444446222042,761.1111112047802,102.77777779044118,294.44444448070135,391.666666714882,247.2222222526616,N
102_197,56743,157500.00001938464,157572.22224161573,157619.44446384377,157675.00001940617,157886.11113054326,3.23203339699874,-32.467223781697456,65.63805282047501,-29.153332293062377,16.228628032702392,-11.033977421028778,108.58782542457556,-159.4911426994221,34.36879929980478,11.193450470362354,211.11111113708466,119.44444445913541,811.1111112109502,102.77777779044118,313.88888892752584,386.1111111586215,266.6666666994861,N
102_198,57035,158313.8889083737,158383.33335282668,158430.55557505472,158486.11113061712,158700.00001953234,3.6179728245511176,-37.53829046646104,74.31489730963582,-32.439525800516954,15.97867235515458,-16.059382296727065,129.81021364910393,-173.75031465541812,38.02763458400066,9.80163024285202,213.88888891521492,116.66666668103426,816.6666667671816,102.77777779044118,316.6666667056561,386.1111111586506,269.44444447761634,N
102_199,57329,159119.4444640284,159202.777797372,159247.2222418219,159302.7777973843,159516.66668629952,4.55758942203355,-36.86584182533223,74.99461335070482,-34.16250921084932,14.93199186212562,-4.201959067898565,118.5084958747784,-162.6206525666623,37.09407064563888,10.563562686551943,213.88888891521492,127.77777779349708,811.1111112109211,100.00000001231092,313.88888892752584,397.2222222711134,269.44444447761634,N
102_200,57621,159941.66668635182,160011.1111308048,160058.33335303282,160113.88890859525,160325.00001973234,3.2646212192843564,-33.19169469296384,67.79520637958619,-29.217387101429445,14.87106919855452,-11.916544758810252,92.84748755416824,-154.4406977203456,32.21886191411369,12.373623964528669,211.11111113708466,116.66666668100515,836.1111112140352,102.77777779044118,313.88888892752584,383.33333338052034,266.6666666995152,N
102_201,57922,160783.33335312206,160850.00001979695,160894.44446424686,160950.00001980926,161175.00001983694,4.462936004686659,-37.922399618695295,74.57681358674665,-32.40266546818204,15.065464871750049,-18.40668085628056,125.10042183508416,-163.65099320841142,35.34287411481988,7.259429483987305,225.00000002767774,111.11111112480285,813.8888889890513,100.00000001231092,325.00000003998866,391.666666714882,280.55555559007917,N
102_202,58215,161569.44446432992,161663.888908786,161708.3333532359,161763.8889087983,161961.1111310448,2.251935188586937,-35.43069685103561,76.28519898784245,-31.79133307595993,14.705539139857912,1.2362358019346202,98.25124972734444,-151.13143406970207,32.86190256640852,11.70621405328448,197.22222224649158,138.888888905989,766.6666667610407,100.00000001231092,297.2222222588025,391.666666714882,252.777777808893,N
102_203,58491,162358.33335331592,162427.7777977689,162475.00001999695,162525.0000200031,162719.44446447148,3.337750242739841,-30.96870381839499,70.98042449474072,-30.22811182135312,16.454197245073466,-10.088234351121782,83.23490106858868,-142.10547303959058,27.00166065024606,12.302357689315963,194.44444446839043,116.66666668103426,763.8888889829104,97.22222223418066,291.6666667025711,361.1111111555656,244.44444447453134,N
102_204,58766,163119.4444645207,163191.66668675182,163238.88890897986,163291.66668676413,163497.222242345,3.5154601266841565,-35.745365688850875,75.90926378597985,-30.97122386633796,15.047070691158966,-11.261744769364237,105.34401061285604,-157.87481586461124,32.28657272109595,8.975328019964886,205.55555558085325,119.44444445916452,772.222222317243,100.00000001231092,305.5555555931642,377.77777782428893,258.3333333651244,N
102_205,59044,163897.2222423942,163966.6666868472,164011.1111312971,164066.6666868595,164269.44446466223,4.204919617848401,-36.83118188185871,77.15861927389057,-31.88428486671623,13.164877889017106,-13.439747474514366,109.2556761292279,-158.0264126208766,35.478254922172795,9.627806776322538,202.777777802723,113.888888902904,811.1111112109502,100.00000001231092,302.7777778150339,372.2222222680284,258.3333333651244,N
102_206,59336,164700.0000202708,164775.00002028,164822.22224250805,164880.55557584856,165102.77779809813,4.722078483352705,-36.88825846149879,72.95185926589582,-32.61401924436501,14.777532562969675,-7.495994417487764,97.21123052148828,-157.22619490459758,35.941544783933374,10.695888055544664,222.2222222495766,122.22222223726567,838.8888889921363,105.55555556857144,327.777777818148,402.77777782734483,280.55555559007917,N
102_207,59638,165544.44446481916,165613.88890927215,165661.1111315002,165716.6666870626,165933.3333537559,4.078460636395368,-36.736559756002094,72.7182812827128,-31.63812195843997,14.582347783676116,-14.36565093426928,115.48314794054184,-171.33147047480853,37.796563984925335,8.524802568126912,216.66666669331607,116.66666668103426,819.4444445453119,102.77777779044118,319.44444448375725,388.88888893675175,272.2222222557175,N
102_208,59933,166363.88890936447,166436.11113159556,166480.5555760455,166536.11113160787,166736.1111316325,3.9616782419473378,-37.56666254740457,77.44249863988338,-33.25033886996011,15.79725402482462,-13.41334094345838,127.05466697030316,-171.24833499030845,38.72892260037591,9.24094149510497,200.00000002462184,116.66666668103426,808.3333334328199,100.00000001231092,300.00000003693276,372.2222222680284,255.55555558699416,N
102_209,60224,167166.66668724106,167241.66668725028,167288.88890947832,167344.4444650407,167552.77779839968,4.749389552152882,-35.67775181752022,70.11871569692036,-31.14256075820381,15.593568641226476,-9.041896824615314,113.37145611786634,-167.62854556466752,38.4198860914044,12.151166626611596,208.3333333589835,122.22222223726567,808.3333334328199,102.77777779041207,311.1111111493956,386.1111111586215,263.88888892135583,N
102_210,60515,167980.5555762301,168050.0000206831,168097.22224291114,168150.0000206954,168341.66668738567,4.476629961984084,-34.694016666045634,72.71025188725649,-31.23938420287392,15.273194540965182,-12.187656630333391,96.1941765238048,-162.16499775430194,35.13524196668553,10.3541412528536,191.66666669026017,116.66666668103426,766.6666667610116,100.00000001231092,291.6666667025711,361.1111111555656,244.44444447453134,N
102_211,60791,168733.33335410053,168819.44446522224,168863.88890967215,168919.44446523456,169097.2222430342,3.3975088450961377,-34.79379940491391,75.72207686031398,-30.689313032878808,15.949315228113257,-1.4532927961071216,93.83173498713072,-149.9685293593712,32.18174937735283,11.430797228451832,177.777777799638,130.55555557162734,752.7777778704185,100.00000001231092,277.7777778119489,363.88888893366675,233.3333333620394,N
102_212,61062,169494.4444653053,169572.22224309266,169616.66668754257,169672.22224310497,169877.77779868583,3.609273844509652,-33.58496806297955,71.63428304189578,-31.03370049773226,15.70062325635615,-4.879720300376065,85.04638125399201,-138.53191643177144,31.18093635041221,14.160582392529228,205.55555558085325,122.22222223726567,797.2222223203571,100.00000001231092,305.5555555931642,383.33333338052034,261.1111111432547,N
102_213,61349,170300.00002096003,170369.44446541302,170413.88890986293,170466.6666876472,170675.00002100618,3.963551645052982,-34.64740671944577,71.91373823589241,-30.36625824793936,15.185650862549684,-13.63218721206918,113.32918007172958,-152.11609382950678,31.11762219238432,10.307423382606604,208.3333333589835,113.888888902904,827.7777778796444,97.22222223418066,305.5555555931642,375.0000000461587,261.1111111432547,N
102_214,61647,171122.22224328344,171194.44446551453,171241.66668774257,171297.22224330498,171522.22224333268,4.388774618210641,-36.97212580022019,76.15225137070577,-33.662288058516765,13.233378095921882,-10.65470869469756,103.72993743179502,-164.6182229395202,36.79995093435478,8.243650672896816,225.00000002770685,119.44444445913541,833.3333334359049,102.77777779044118,327.777777818148,400.0000000492437,280.55555559010827,N
102_215,61947,171961.11113227558,172030.55557672857,172075.00002117848,172130.55557674088,172344.4444656561,5.326639218657609,-34.89707696556176,70.05595200642469,-30.17162866409776,15.231458387683665,-11.673808216660344,90.29533997924568,-141.2393585711845,32.700021727626506,12.816957972307188,213.88888891521492,113.888888902904,819.4444445453119,100.00000001231092,313.88888892752584,383.33333338052034,269.44444447761634,N
102_216,62242,172780.5555768209,172850.00002127385,172894.4444657238,172950.00002128616,173150.0000213108,3.1781834882651188,-33.77545563322403,69.90505179479152,-29.746008180733323,15.368431146184031,-13.333022198237645,109.59883392902556,-155.4995977361226,33.99717631867458,11.77572558941155,200.00000002465094,113.888888902904,802.7777778765594,100.00000001231092,300.00000003696186,369.44444448992726,255.55555558702326,N
102_217,62531,173577.7777991412,173650.00002137234,173697.22224360035,173750.00002138462,173961.11113252174,4.264070754041664,-37.00068673358518,75.41553554092826,-32.263611249359926,11.046272116784902,-11.52577527683531,109.62736047167544,-150.88777150627502,32.29096838101055,14.037840594385507,211.11111113711377,119.44444445916452,816.6666667671816,100.00000001228182,311.1111111493956,383.33333338054945,263.88888892138493,N
102_218,62825,174405.55557702086,174477.77779925198,174513.88891036753,174586.11113259866,174619.44446593607,3.726097013236109,-30.23272088106621,45.31821322838795,-2.136893748273112,22.623448633521665,0.752707812033085,1.057415833244011,186.42441831099072,-244.50527964842723,0.9857759384828668,33.33333333741757,108.33333334667259,400.0000000492437,108.33333334667259,141.66666668409016,213.88888891521492,105.55555556854233,f
102_219,62969,174722.22224372652,174802.77779929197,174913.88891041678,174933.3333548636,175316.66668824412,1.4907140427446657,-3.749519289854992,-1.798773072166066,-4.318474266099861,51.12740317661739,-11.926716731985408,26.228980507001616,-11.03058092377012,-5.815805685789559,190.3667962052928,383.33333338052034,191.66666669026017,402.77777782734483,130.55555557162734,513.8888889521477,594.444444517605,402.77777782734483,+
102_220,63114,175208.33335489745,175277.77779935044,175316.66668824412,175405.55557714394,175638.888910506,3.825308971859173,-34.566959646840964,51.12740317661739,-43.548671520984335,9.08935728518789,-0.738250842027489,-6.880304418939887,190.3667962052928,-201.84438806979352,4.663201912697377,233.33333336206852,108.33333334667259,791.6666667640966,127.77777779349708,361.1111111555656,430.5555556085601,322.2222222618875,/
102_221,63399,175947.22224387727,176069.44446611454,176108.33335500822,176208.33335502053,176466.66668838565,4.366788385139035,-36.31662275642973,44.14714128629858,-33.08976529014708,6.860588624361645,-4.374035223210045,-11.994008385748,179.17092046260996,-177.4263264407843,-15.002336829956196,258.3333333651244,161.11111113094375,830.5555556577747,138.888888905989,397.2222222711134,519.4444445083791,358.33333337743534,/
102_222,63698,176819.44446620686,176900.0000217723,176938.888910666,177047.22224401266,177294.44446626533,6.28704207477256,-31.04247082139448,42.31159916537327,-38.250243945348245,6.836718280265972,1.768945625649652,-16.63855675542985,166.4646325466542,-158.86261427043786,5.447620367767674,247.2222222526616,119.44444445913541,866.6666667733516,147.22222224035067,394.44444449301227,475.0000000584696,355.5555555993342,/
102_223,64010,177694.44446631454,177766.6666885457,177805.55557743934,177905.55557745165,178186.11113304173,4.02204340191006,-34.54361129116149,49.0731458849203,-35.42089541309504,6.644478264628552,1.8081163602178647,-17.70490532422868,159.54403538875343,-163.0746040988389,-9.151434973620567,280.55555559007917,111.11111112480285,866.6666667733225,138.8888889059599,419.44444449603907,491.66666672719293,380.5555556023901,/
102_224,64322,178572.22224420035,178636.11113309712,178672.22224421267,178766.66668866877,179025.00002203387,2.758168809013686,-37.15683468396035,52.00684405483008,-45.278724440813285,11.24840678502769,-3.9345436583936655,-1.1963699680704412,183.211319481468,-175.82863980262763,3.069790551912967,258.3333333650953,100.00000001231092,827.7777778796735,130.55555557165644,388.88888893675175,452.77777783351485,352.7777778212039,/
102_225,64620,179388.88891096754,179461.11113319866,179500.00002209234,179588.88891099216,179675.00002211388,4.052102253411798,-36.023649298421255,50.51898584000173,-45.987542904150814,12.8619655708045,0.0174868172514313,-1.46230336671117,186.14153558434165,-198.98656035702257,83.21997647233907,86.11111112171784,111.11111112480285,797.222222320328,127.77777779349708,213.88888891521492,286.1111111463397,175.00000002153683,/
102_226,64907,180188.888911066,180261.11113329712,180297.22224441267,180391.66668886875,180658.33335556823,3.6486265890509695,-33.71924740085594,42.417309706666586,-35.02196196355816,10.734576513893549,0.0387082857663183,3.4629735319624206,180.7257387590753,-185.9740943379581,-15.296399376206876,266.6666666994861,108.33333334667259,825.0000001015433,130.55555557162734,397.2222222711134,469.4444445022382,361.1111111555656,/
102_227,65204,181008.3333556113,181086.11113339863,181122.2222445142,181216.6666889703,181288.8889112014,4.32053247868695,-34.679241286623814,48.96751290430458,-46.26697613486122,14.185472001716514,2.055468816424799,10.249967849185154,187.51007901419075,-190.21080494310755,110.74020788849892,72.22222223109566,113.888888902904,805.5555556546897,130.55555557165644,202.7777778027521,280.55555559007917,166.66666668717517,/
102_228,65494,181808.33335570976,181888.8889112752,181927.7778001689,182016.66668906875,182091.666689078,3.5018500035149045,-34.457062895154564,46.390031309399326,-42.54562954631443,11.287850070012968,3.3977296976715587,-4.645713304737692,191.73483935546935,-212.2376642489667,107.4585168157822,75.00000000925502,119.44444445913541,797.2222223203862,127.77777779355529,202.7777778028103,283.3333333682385,163.88888890910312,/
102_229,65781,182622.2222446988,182688.8889113737,182725.0000224893,182819.4444669453,183105.55557809165,3.4213515981901823,-36.33103837971666,47.757208083057634,-34.66021205566791,8.375873861995117,-2.892814451084456,0.6749603078203046,181.5399504535052,-175.89690109306875,-18.765676495942643,286.1111111463397,102.77777779049939,844.4444445483678,130.55555557159823,416.6666667179379,483.33333339286037,380.555555602361,/
102_230,66085,183458.33335591285,183530.55557814395,183569.44446703765,183663.8889114937,183938.88891152755,3.746395055140608,-35.6114240903141,49.88424512938152,-42.55502285953591,8.85578244793399,1.5268017517313652,-10.455628589983691,173.9796291825931,-169.1887949410664,4.289198803203327,275.00000003384775,111.11111112480285,863.8888889951922,133.3333333497576,408.33333338360535,480.555555614701,369.44444448989816,/
102_231,66396,184325.00002268617,184397.2222449173,184433.33335603285,184533.3333560452,184816.66668941337,3.5846909724737386,-36.7123608834028,49.69587858184869,-34.07623156975059,10.38331557709918,1.9610634131070592,-9.773697684474175,163.8940916942149,-159.03749582389443,-7.733812121236864,283.3333333681803,108.33333334667259,850.0000001045992,136.11111112788785,419.4444444960682,491.66666672719293,383.33333338052034,/
102_232,66702,185175.0000227908,185247.2222450219,185283.33335613745,185375.0000228154,185627.7778006243,3.554514041059388,-35.48037596495376,48.13290339478096,-28.51233795512496,10.37419478900782,0.6526672658040995,-1.88575106557796,178.14737742017795,-185.6508920222912,11.720112914107824,252.777777808893,108.33333334664349,800.0000000984583,127.77777779349708,380.5555556023901,452.77777783348574,344.44444448684226,/
102_233,66990,185980.5555784455,186047.2222451204,186083.3333562359,186172.22224513572,186238.88891181065,3.2911184412742576,-38.21234017337481,60.26546484208693,-55.68306967850759,10.20238281381321,-2.814235748378691,2.559725773402761,176.72725701098395,-206.13210414525315,142.7853556051056,66.66666667492245,102.77777779041207,805.5555556547479,125.00000001530861,191.66666669023107,258.3333333651535,155.55555557474145,/
102_234,67280,186777.77780076585,186850.00002299692,186888.88891189065,186983.33335634667,187255.5555786024,3.892449553280004,-34.530254618743015,44.26831340206448,-27.94721136128695,9.314376431189151,1.3056103739214466,-12.106681281313682,166.8453551185137,-171.94428741640172,-8.571335802025601,272.2222222557175,111.11111112480285,827.7777778796153,133.3333333497576,405.5555556054751,477.77777783654165,366.6666667117388,/
102_235,67578,187605.5555786455,187680.55557865472,187716.66668977027,187808.33335644825,188061.1111342571,3.1002048406275176,-35.3084662147126,44.33928870677373,-28.16455554955393,8.85572208209211,1.286263970541483,-2.024367392702704,176.7686305884573,-176.14741408697304,3.607330802660508,252.7777778088639,111.11111112477374,816.6666667671816,127.77777779352618,380.5555556023901,455.555555611616,344.44444448684226,/
102_236,67872,188419.44446763452,188500.00002320003,188533.33335653745,188627.77780099356,188866.66668991183,3.785824050689605,-35.13375779662569,45.837850843579645,-41.68390763686641,6.527536078190613,2.649559964085151,7.369956867325296,179.01326705008202,-174.9488605321617,20.436664685069903,238.88888891827082,113.8888889029331,833.3333334358758,127.77777779352618,366.666666711797,447.22222227731254,333.33333337437944,/
102_237,68172,189261.1111344048,189330.5555788578,189366.66668997332,189463.88891220756,189736.11113446328,4.054916801047863,-35.74044076104448,42.220784106334825,-31.686256932332043,7.223108780146132,0.2765061635834421,-13.358837709095182,167.4457056846051,-154.87257645999978,1.346610246670429,272.2222222557175,105.55555556851323,852.7777778827585,133.3333333497576,405.5555556054751,475.0000000584696,369.44444448995637,/
102_238,68479,190108.3333567313,190180.5555789624,190219.44446785608,190311.11113453403,190583.33335678975,2.890220222638016,-34.43416327227209,44.58769806915653,-24.6457271348152,6.819594904115181,1.2021386961314962,-7.421393600189832,169.99237550666714,-146.90532825498985,-1.6940668202660971,272.2222222557175,111.11111112477374,858.3333334389899,130.55555557162734,402.77777782734483,475.0000000584405,363.88888893366675,/
102_239,68788,190952.77780127968,191038.8889124014,191077.77780129507,191177.77780130735,191422.22224578192,3.0757698560847797,-33.57049520033441,43.93650691743557,-33.03052692621041,7.94585220834196,2.613967757789484,-0.8854314629206979,154.2126398532989,-150.0232211517692,13.20960681164664,244.44444447456044,125.00000001539593,822.222222323413,138.8888889059599,383.33333338052034,469.4444445022382,344.44444448684226,/
102_240,69084,191788.88891249368,191861.1111347248,191900.0000236185,192005.55557918703,192225.00002365847,3.8441778312815695,-33.17816520056562,41.570602528664985,-23.50043752653415,8.073398792170766,-0.5428986139686107,-5.712013813518194,160.67812397699822,-148.98500579980148,8.368950809084637,219.44444447144633,111.11111112480285,786.1111112078652,144.44444446222042,363.88888893366675,436.1111111647915,325.00000003998866,/
102_241,69367,192575.00002370155,192650.0000237108,192686.11113482635,192794.44446817305,193008.33335708824,2.916333436946634,-29.628626943209703,37.55409210075039,-25.557277235001774,7.163872211156242,-0.7770196505707228,-5.299523100539749,170.27748893726982,-144.52150793658433,-0.1550482493140874,213.88888891518582,111.11111112480285,802.7777778765594,144.44444446224952,358.33333337743534,433.33333338669036,322.2222222618875,/
102_242,69656,193386.1111349125,193455.5555793655,193488.8889127029,193597.2222460496,193833.33335718972,3.267022132716599,-31.853035727330624,37.672251462295776,-35.71605824762734,8.848542101280623,5.441830329396694,2.233749445550103,160.60164697130264,-154.25586466650248,4.027392789910492,236.11111114011146,102.77777779041207,827.7777778796444,141.66666668411926,377.7777778242307,447.2222222772252,344.44444448681315,/
102_243,69954,194222.2222461265,194283.33335724517,194316.66669058256,194425.0000239293,194661.11113506943,1.8759617457897664,-34.342071816405856,35.26452713726341,-30.64664345370904,5.89260113092555,0.2046607801594465,-1.0481975469249656,153.66918878053414,-160.57843456584263,1.8421199376123016,236.11111114014057,94.4444444560504,830.5555556578329,141.66666668411926,377.77777782425983,438.88888894292177,344.44444448687136,/
102_244,70253,195052.7778017843,195111.1111351248,195147.2222462404,195255.55557958703,195508.33335739592,6.465082132016418,-36.813498037801935,40.20433984815348,-24.53303720150756,4.28272128208069,-6.230279867068427,-14.952525087881265,155.0512543171339,-172.60273275227937,-21.151724676737807,252.777777808893,94.44444445607951,844.4444445483678,144.44444446222042,397.2222222711134,455.555555611616,361.1111111555365,/
102_245,70557,195888.8889129983,195952.77780189508,195991.66669078876,196083.33335746668,196136.11113525095,3.0319378575266263,-34.648768029655514,51.31862459432612,-48.42932552552953,9.893016565709663,-3.183760338274471,-10.908945979496414,167.18696450414782,-160.26245561803623,59.46556270876541,52.777777784271166,102.77777779044118,844.4444445483678,130.55555557159823,183.3333333558694,247.2222222526325,144.4444444621913,/
102_246,70861,196725.00002421232,196800.00002422155,196836.11113533712,196933.3333575713,197213.88891316135,3.082357330811236,-33.823882477164254,41.35895428091112,-39.81668865779129,7.296399720314633,1.3824933720633057,-6.200925167818415,162.79208399608797,-162.95396159319776,-13.644110201032898,280.55555559005006,111.11111112480285,841.6666667702375,133.3333333497576,413.88888893980766,488.88888894903357,377.7777778242307,/
102_247,71164,197569.44446876072,197638.88891321368,197677.77780210736,197769.4444687853,198002.77780214735,2.892022887578026,-32.513201781164135,48.90725532941363,-41.60715061689312,7.650482577315392,-0.4708308054863967,-6.755570981350991,152.85601025444902,-177.80106079074162,36.6022866899468,233.3333333620394,108.33333334664349,813.8888889890804,130.55555557162734,363.88888893366675,433.33333338663215,325.00000003998866,/
102_248,71457,198386.1111355279,198452.7778022028,198491.66669109644,198580.55557999623,198644.44446889305,4.520988781006596,-37.17671669192899,59.392581971489015,-54.42061228379961,12.234571965335222,-1.199977297873689,-5.595727926415811,170.58527939209728,-193.5802093938147,139.82338819890134,63.8888888968213,105.55555556854233,794.4444445422268,127.77777779343887,191.66666669026017,258.3333333651535,152.7777777966112,/
102_249,71743,199172.2222467357,199250.0000245231,199286.11113563867,199375.0000245385,199619.44446901305,3.0299653271229987,-36.50038868415483,51.32323258504048,-39.19265489010956,10.11792378138106,2.869404445833456,-5.652909464828897,177.90639146626637,-199.99049654379772,7.542275348530555,244.44444447456044,113.88888890296221,813.8888889890222,125.00000001539593,369.44444448995637,447.22222227734164,333.33333337437944,/
102_250,72036,199991.66669128105,200063.88891351217,200100.0000246277,200194.44446908377,200480.5555802301,3.872858618767512,-36.52993152087837,55.18764000072777,-43.43327500970779,8.184481419155373,1.211018283607069,-4.781710458920439,156.55789285488007,-177.73803257180813,-11.174647037038191,286.1111111463397,108.33333334664349,852.7777778827585,130.55555557159823,416.6666667179379,488.8888889490627,380.5555556024192,/
102_251,72343,200850.00002472,200913.8889136168,200952.77780251045,201050.00002474463,201319.44446922225,3.2706183197488823,-34.02376021204308,50.04035536095125,-25.38007254860073,8.25576168527122,-2.030003662739515,-9.860583762677615,166.68013028978336,-140.96427188613453,-1.7290284843036705,269.44444447761634,102.77777779044118,902.7777778888703,136.11111112782964,405.555555605446,469.4444445022382,366.666666711797,/
102_252,72668,201669.4444692653,201761.11113594327,201855.55558039932,201908.3333581836,202163.8889137706,7.378771569644216,-34.8660419903248,43.24881606942908,-30.61938353328452,7.26718758237798,-2.22157208634517,-11.476990142169091,-109.24030479323956,-150.4737096189545,-8.094630078889718,255.55555558702326,186.11111113402876,783.333333429764,147.22222224032157,402.77777782734483,494.4444445053232,308.33333337129443,/
102_253,72950,202527.7778027043,202597.22224715727,202638.88891382908,202733.3333582852,203002.77780276275,4.136105445699919,-37.50706157479242,51.091093999517625,-16.759379321889554,6.967560691334667,-0.6163842326511841,-13.589844479835412,159.3323557127264,-144.88784178238657,-2.4470230998394262,269.44444447755814,111.11111112477374,827.7777778796735,136.11111112791696,405.5555556054751,475.0000000584405,363.88888893366675,/
102_254,73248,203358.33335836208,203430.5555805932,203466.66669170876,203555.55558060855,203608.33335839285,3.7657997128932457,-34.05125389745119,51.86223266408219,-55.3114779095964,15.417146395979888,-0.1256985564484752,2.381378886794615,173.04713242101343,-177.22579484514233,73.64988052437627,52.77777778430027,108.33333334667259,822.222222323413,125.00000001533772,177.777777799638,250.00000003076275,141.66666668409016,/
102_255,73544,204169.444469573,204250.0000251385,204288.88891403217,204380.5555807101,204652.77780296584,2.318288177827457,-36.28130093520748,49.02656070212167,-49.41980045335026,10.660395815576653,3.03735157488099,-10.987876405676095,168.7645888716271,-174.92358613737622,-7.849235354023802,272.2222222557466,119.44444445916452,800.0000000984583,130.55555557159823,402.77777782734483,483.33333339283126,363.88888893366675,/
102_256,73832,204983.3333585621,205050.00002523692,205088.88891413063,205177.77780303045,205425.0000252831,3.1087528601792283,-35.45474138595214,51.33069780005253,-45.74564710474049,10.966847437224205,-1.0540758936500665,-11.196296800921226,169.10834895648378,-197.6019067977615,8.85734295897949,247.2222222526616,105.55555556854233,794.4444445421977,127.77777779352618,375.0000000461878,441.6666667210229,336.1111111524806,/
102_257,74118,205766.66669199185,205844.4444697792,205883.33335867283,205972.22224757267,206222.22224760344,3.704603933607628,-35.4696815870784,52.71372310202823,-49.36151467577692,12.982037679378152,3.55918225032176,-4.175810001225241,179.0921042004653,-194.88982252720945,3.610797751276568,250.00000003076275,116.66666668097605,833.333333435934,127.77777779346798,377.7777778242307,455.5555556115869,338.88888893061085,/
102_258,74418,206586.1111365371,206680.5555809932,206716.66669210876,206816.66669212104,206883.3333587959,3.6414421655245865,-35.96460317612405,46.70858816488901,-55.66912623747398,12.534821397814095,4.185004981247145,-5.596857736091976,159.90967550913993,-155.9884973120737,121.43797005495276,66.66666667486425,130.55555557165644,866.6666667733225,136.11111112782964,202.7777778026939,297.2222222588025,166.66666668714606,/
102_259,74730,207477.77780331357,207547.2222477665,207583.33335888208,207683.3333588944,207958.33335892824,3.5214541455871653,-34.77037776148707,45.33700048786577,-29.523103174919427,7.683805318357106,0.8042555288020167,-10.269978310113268,165.59482977797728,-154.81642809227083,0.9968536070500836,275.00000003384775,105.55555556851323,841.6666667702375,136.11111112788785,411.1111111617356,480.5555556146719,375.0000000461587,/
102_260,75033,208305.5555811932,208386.11113675864,208425.00002565232,208519.4444701084,208766.66669236103,2.03478780764901,-35.14413263369915,54.33141722463825,-33.310165697510776,7.372952422076469,2.4969474304289383,-9.155596984478542,168.28604779742815,-160.13758783551788,13.314632697179686,247.2222222526325,119.44444445910631,833.333333435934,133.3333333497576,380.5555556023901,461.1111111678183,341.666666708712,/
102_261,75333,209086.1111368448,209225.0000257508,209258.33335908825,209366.6666924349,209455.55558133472,2.918080918578623,-30.019289513970307,38.279512560159205,-38.90384008451496,7.264086828440837,-2.8797432182709217,-5.042811540006856,157.43308964130202,-161.70708664061544,63.35830833712679,88.888888899819,172.22222224346478,816.6666667671525,141.66666668409016,230.55555558390915,369.44444448992726,197.22222224646248,/
102_262,75627,209966.66669250876,210036.11113696173,210075.0000258554,210169.4444703115,210419.44447034225,4.636497580380306,-37.4335918544418,47.25104105575152,-18.812119610740744,7.586390584065375,-1.420094145241451,-6.1906875014578375,169.7338501979195,-167.02978276016313,5.418894172913363,250.00000003076275,108.33333334664349,813.8888889890804,133.3333333497576,383.33333338052034,452.77777783348574,344.44444448684226,/
102_263,75920,210780.5555814978,210852.7778037289,210888.8889148445,210980.5555815224,211236.11113710943,4.043659385436548,-33.97541086537097,48.22358766284273,-44.24969103027779,8.710482100698501,-0.0587360754641508,3.970297153423717,174.63305417625315,-183.1600206242027,-2.6620412475091646,255.55555558702326,108.33333334667259,805.5555556547188,127.77777779349708,383.33333338052034,455.555555611616,347.2222222649434,/
102_264,76210,211555.5555815932,211652.77780382737,211694.4444704992,211788.88891495523,212036.1111372079,2.73961000915929,-35.772740400317446,55.344087234320845,-44.65868262756143,7.750732083918257,2.249301032695464,-7.777082589746612,162.89820369746752,-170.55902674993493,-0.1872709832509382,247.2222222526616,138.8888889060181,805.5555556546606,136.11111112785875,383.33333338052034,480.555555614701,341.6666667086829,/
102_265,76500,212391.6666928072,212463.88891503832,212500.00002615387,212594.44447060995,212852.77780397507,3.776740358819412,-37.52225476393948,49.14656377975073,-21.09587230650112,6.285380499403928,-0.6318899643621995,-0.0348990131585855,172.55806096835474,-162.6025808533575,2.4117473860076286,258.3333333651244,108.33333334667259,861.1111112170911,130.55555557162734,388.88888893675175,461.1111111678765,352.7777778212039,/
102_266,76810,213252.77780402428,213322.22224847728,213361.11113737096,213461.11113738327,213519.44447072377,3.73812661058008,-35.613350441473195,51.69897688625641,-47.21252557334015,13.28889365899047,0.5124783887497407,-13.802721525091512,159.30268396597904,-159.57456035285057,100.5797247632598,58.33333334050258,108.33333334667259,861.1111112170911,138.888888905989,197.22222224649158,266.6666666994861,158.3333333528135,/
102_267,77120,214116.6666930195,214183.3333596944,214222.22224858805,214316.66669304413,214372.22224860653,3.239837326833956,-38.70530648019801,63.12389555488308,-57.98490431280591,11.185560780841456,-1.1621894036695937,-10.4928603761075,168.01494699410324,-175.48813863766946,94.46263226932196,55.55555556240142,105.55555556854233,833.3333334359049,133.3333333497285,188.88888891212991,255.55555558702326,150.00000001848093,/
102_268,77420,214950.0000264554,215016.66669313028,215055.55558202395,215147.2222487019,215200.00002648617,3.2846657998580526,-37.69802617652234,56.241235329857474,-49.17963334054112,9.275560712583996,-1.9653902524143556,-6.974267982088075,172.79859619605227,-187.2189445196076,98.32181348891088,52.777777784271166,105.55555556854233,816.6666667672107,130.55555557162734,183.3333333558985,250.00000003076275,144.44444446222042,/
102_269,77714,215763.8889154445,215836.1111376756,215872.22224879116,215969.4444710253,216216.666693278,3.1562484506115536,-34.72200773208221,47.23866797205329,-28.45974730841709,7.991586024503096,1.1071591375941043,-3.9175161559957616,182.91753412994427,-171.2459669714837,6.842228016540599,247.2222222527198,108.33333334667259,797.2222223202698,133.3333333496994,380.5555556024192,452.77777783351485,344.44444448684226,/
102_270,78001,216494.44447108996,216633.33335999592,216669.44447111143,216772.2222489019,217011.1111378202,4.765157271400137,-34.094617692781085,38.99904071646031,-35.56217220593041,8.412413763980549,-5.091615910164837,-2.852610122385351,176.2747431389068,-160.48423763317362,7.898256301660765,238.88888891829993,175.00000002147863,813.8888889890804,138.888888905989,377.77777782428893,516.6666667302488,341.6666667087702,/
102_271,78294,217363.88891564135,217447.222248985,217483.3333601005,217591.6666934472,217830.5555823655,1.815066754817544,-30.930002957055983,41.24642736249905,-22.120482889576444,6.812412224879228,5.092307119036103,-16.488316573923722,169.2558217863744,-166.7321514246128,-0.2182502393880074,238.88888891829993,119.44444445916452,808.333333432849,144.4444444621913,383.33333338049124,466.66666672413703,347.2222222649725,/
102_272,78585,218166.666693518,218252.77780463969,218291.66669353336,218383.3333602113,218438.88891577368,3.428581794453226,-34.79999878407902,57.15815459535236,-47.08695083342126,10.43047650311516,3.5561537878745653,-8.62787004778952,175.280439128525,-181.3473585554441,104.63708598381795,55.55555556237232,125.00000001536682,830.5555556578038,130.55555557162734,186.11111113399966,272.2222222556884,147.22222224032157,/
102_273,78884,219013.8889158445,219083.33336029743,219122.22224919117,219219.4444714253,219502.77780479356,3.59715909955755,-35.81032872703554,47.685708889380365,-34.30461484161439,10.7424525378119,0.8157464321927037,-15.346444650548271,171.7057162607448,-164.56678512052835,-12.570484216544807,283.33333336826763,108.33333334667259,877.7777778857562,136.11111112785875,419.4444444961264,488.8888889490627,380.5555556023901,/
102_274,79200,219891.66669373028,219961.11113818327,220000.00002707692,220094.444471533,220150.0000270954,3.025044158066892,-34.612763525634286,52.83592361451991,-45.05964462322616,9.537808583538258,-0.7584008782062934,-0.177042678727527,159.7646688058179,-151.88854471893436,68.5498407165897,55.55555556240142,108.33333334664349,855.5555556608888,133.3333333497285,188.88888891212991,258.3333333651244,150.00000001848093,/
102_275,79508,220752.77780494737,220819.44447162224,220855.5555827378,220958.33336052825,221241.66669389643,3.5071933708044662,-37.581923208623145,48.81016026649587,-41.24403897651446,10.475385416440988,-2.352485174968112,-4.750542412474209,172.56822412638653,-155.00224416387604,-24.763018487503132,283.3333333681803,102.77777779044118,822.2222223234421,138.8888889060181,422.22222227419843,488.8888889490627,386.1111111586215,/
102_276,79804,221566.6666939364,221638.88891616755,221677.77780506125,221775.0000272954,222027.7778051043,3.602296576695041,-36.67459858130093,51.86345183757928,-29.74390426391928,9.667567455366306,1.9238329741781224,-13.881563629654057,178.13745779036543,-168.17403430143582,0.4247122229653826,252.777777808893,111.11111112486105,805.5555556546606,136.11111112785875,388.88888893675175,461.1111111679056,350.00000004304457,/
102_277,80094,222380.5555829255,222447.2222496004,222483.33336071591,222591.6666940626,222825.00002742463,2.2608182864967907,-37.45539962561187,48.49520217269317,-25.53768818572572,6.299956331152169,-0.9365659690926946,-11.045534883976485,173.91085719814606,-162.14830733722894,-5.9829371682429215,233.3333333620394,102.77777779041207,794.4444445421977,144.4444444621913,377.7777778242307,444.4444444991241,341.666666708712,/
102_278,80380,223122.22224968343,223241.6666941426,223277.7778052581,223386.1111386048,223625.0000275231,4.114248472156468,-35.34466134813066,38.903508721870594,-30.772459082436868,9.532694182395524,-4.127251779849601,-16.03941823092562,164.3205870600833,-166.6858215829033,-1.3907572654668003,238.88888891829993,155.55555557468324,827.7777778797317,144.44444446222042,383.33333338052034,502.77777783968486,347.2222222650016,/
102_279,80678,223991.66669423488,224069.44447202224,224105.55558313784,224213.8889164845,224452.7778054028,8.08484247601187,-35.147420952874484,35.2392751054933,-22.73991385095454,8.580852476517927,-1.6096694405581695,-12.46463939364012,146.8560609536469,-173.68338672653118,7.686122699470945,238.88888891829993,113.88888890296221,827.7777778795862,144.44444446224952,383.33333338054945,461.1111111679056,347.2222222649434,/
102_280,80976,224825.0000276708,224897.2222499019,224933.33336101743,225025.0000276954,225077.77780547968,3.3757795627583564,-33.75479668591054,53.369385025156845,-45.65541924125314,12.958565711458506,0.8048077238023084,-5.510630255145889,173.73788124946302,-171.6036995171997,58.46618007265037,52.777777784271166,108.33333334664349,838.8888889921654,127.77777779349708,180.55555557776825,252.777777808893,144.44444446224952,/
102_281,81278,225663.8889166629,225733.33336111592,225772.2222500096,225863.88891668757,226147.22225005573,3.908567805298824,-33.293310282159275,52.8521954735504,-47.38556226369308,8.088411954995713,-0.9345868172712352,-1.9202178095341265,172.64506078975637,-176.6644296445704,-21.2746325729626,283.3333333681512,108.33333334670169,872.2222223296121,130.55555557165644,413.88888893980766,483.33333339283126,375.00000004612957,/
102_282,81592,226533.3333612144,226605.5555834455,226644.4444723392,226741.66669457336,227002.7778057166,3.35418054820594,-34.488569430249946,46.94837376925607,-35.931765148873026,11.871075804641537,2.3684488346881443,-14.94631390137385,168.66117195578704,-148.41979071493017,11.889149405639593,261.1111111432547,111.11111112480285,841.6666667702375,136.11111112785875,397.2222222711134,469.4444445022091,358.33333337740623,/
