Index,Peak indices,P Peak Time,Q Peak Time,R Peak Time,S Peak Time,T Peak Time,P_ml2_Ampli,Q_ml2_Ampli,R_ml2_Ampli,S_ml2_Ampli,T_ml2_Ampli,P_v5_Ampli,Q_v5_Ampli,R_v5_Ampli,S_v5_Ampli,T_v5_Ampli,diff_T_S,diff_R_P,diff_R_next_R,diff_RQ_SR,diff_T_Q,diff_T_P,diff_T_R,label
103_1,265,0.0,691.666666751795,736.1111112017095,780.555555651624,1008.333333457436,0.0,-79.78008652807463,200.9433673354144,-66.43085045392677,26.906786367525346,0.0,-41.451427333786,124.62005230650868,-45.82523825828251,16.812100454179323,227.77777780581198,736.1111112017095,861.111111217094,88.888888899829,316.666666705641,1008.333333457436,272.2222222557265,N
103_2,575,1436.1111112878634,1555.5555557470086,1597.2222224188035,1644.4444446468378,1847.2222224495729,10.401536288929154,-74.98120374516584,193.6983906874564,-62.17524530458306,27.572482963762614,0.2988936205432488,-38.2386658048177,115.22096940337094,-39.153406189849896,19.09668961549941,202.77777780273505,161.11111113094012,836.1111112140175,88.88888889982923,291.66666670256427,411.11111116170946,250.00000003076934,N
103_3,876,2302.777778061197,2388.888889182906,2433.333333632821,2477.7777780827355,2688.8888892198293,8.408590306731334,-69.73220318580405,182.99708655942533,-59.80628610839903,23.69079413411375,2.0952753658454424,-38.572622971536255,111.42168997803492,-38.88194495631768,17.437667847503903,211.11111113709376,130.55555557162415,844.4444445483759,88.88888889982945,300.0000000369232,386.1111111586324,255.55555558700826,N
103_4,1180,3119.4444448283766,3236.1111115094022,3277.777778181197,3325.0000004092312,3536.111111546325,10.56867556500129,-71.71889485631279,188.9729238167435,-61.624227845411255,26.521867484500152,0.5397993390822797,-36.81401619332719,111.01878187205604,-37.00193801013711,17.1202899931122,211.11111113709376,158.33333335282032,838.8888889921368,88.888888899829,300.00000003692276,416.6666667179484,258.33333336512806,N
103_5,1482,3961.1111115986328,4075.000000501539,4116.666667173334,4163.888889401368,4380.555556094701,10.930609527826222,-75.14378978753263,194.60047922020985,-63.382828136567326,26.395703636090555,0.9549833592815646,-40.500013552368216,121.02742933460364,-40.34387909206144,17.819308301936218,216.66666669333335,155.55555557470097,869.4444445514528,88.888888899829,305.55555559316235,419.4444444960686,263.88888892136765,N
103_6,1795,4808.3333339251285,4941.666667274872,4986.1111117247865,5030.555556174701,5277.777778427351,8.221029207334889,-81.77157869827353,204.0731664272302,-68.62443530217858,23.4402780216321,0.7729737631836366,-44.85655457075409,132.19213085450053,-49.35536169553659,15.148576669862218,247.22222225264977,177.777777799658,922.2222223357267,88.888888899829,336.11111115247877,469.4444445022227,291.6666667025647,N
103_7,2127,5744.444445151454,5866.666667388718,5908.333334060513,5955.555556288547,6186.111111872479,10.5855915131341,-73.76221825753284,191.1378189225728,-65.03653609036233,23.7798200235061,1.263148052675198,-40.20495605802693,118.27372426854244,-43.24118163934065,16.16515332228251,230.5555555839319,163.88888890905946,880.555555663932,88.888888899829,319.4444444837609,441.66666672102565,277.7777778119662,N
103_8,2444,6655.555556374701,6744.444445274531,6788.888889724445,6833.33333417436,7050.000000867693,10.54187233178417,-72.29777699098616,187.5746030499864,-61.34957137101005,25.17879244857797,1.6902804229780064,-39.27238405395785,117.97315902122634,-40.06909691145001,17.61753215863373,216.66666669333335,133.33333334974395,833.3333334358977,88.888888899829,305.55555559316235,394.44444449299226,261.1111111432483,N
103_9,2744,7463.888889807522,7580.555556488548,7622.222223160343,7669.444445388377,7894.444445416069,10.950469164630912,-75.4659966880502,192.6186466903024,-62.33299351390273,25.68658014308714,0.2158080260207401,-40.67198811810141,123.56617993511568,-43.20419053441316,17.125692616180913,225.0000000276923,158.33333335282077,833.3333334358977,88.888888899829,313.8888889275213,430.55555560854737,272.2222222557266,N
103_10,3044,8294.4444454653,8411.111112146325,8455.55555659624,8500.000001046155,8727.777778851967,10.04550677242152,-74.2127405292337,189.95578860416688,-61.04966908437467,24.258409223987652,0.7968768425359567,-39.41655129551533,121.8164820795026,-44.72885398700227,17.150009858450442,227.77777780581164,161.11111113094012,841.6666667702557,88.88888889982991,316.66666670564155,433.3333333866667,272.2222222557266,N
103_11,3347,9163.888890016751,9252.777778916585,9297.222223366496,9341.666667816413,9575.000001178463,10.62480901632082,-75.28519820478047,191.6120551531786,-63.8231431222568,24.76352501816806,1.896279841241307,-41.72274378623494,121.01866754088049,-44.53106042792589,16.957713348398002,233.33333336205033,133.33333334974486,833.3333334358977,88.88888889982809,322.2222222618784,411.11111116171196,277.7777778119671,N
103_12,3647,9966.666667893334,10086.11111235248,10130.555556802394,10175.000001252309,10405.55555683624,9.920468562418742,-79.23315209489925,197.3891665644944,-64.8192415556846,25.220748536420103,-0.0928115262866742,-43.89195517820713,127.30558760218436,-45.075654310375285,17.117546823490198,230.55555558393098,163.88888890905946,852.7777778827349,88.88888889982809,319.44444448375907,438.8888889429054,275.00000003384594,N
103_13,3954,10813.88889021983,10941.666668013337,10983.333334685129,11027.777779135044,11266.666668053334,9.600659873832845,-74.26199094654774,186.5205301047516,-63.96031159726312,21.842413286391835,0.688726549601349,-41.85849526538891,123.40397099819604,-48.6003025586648,15.1979920924501,238.88888891829083,169.44444446529815,911.1111112232466,86.11111112170693,325.00000003999776,452.77777783350393,283.3333333682058,N
103_14,4282,11713.8888903306,11852.777779236583,11894.444445908375,11941.666668136411,12188.888890389062,8.680423836375372,-81.07771698298319,196.5231249293224,-64.76487728036248,23.370951867086024,0.4859719172197745,-45.63290500415603,129.94982373435616,-48.54663160688034,15.450328151306689,247.22222225265068,180.55555557777552,908.3333334451308,88.88888889982809,336.11111115247877,475.0000000584623,294.4444444806868,N
103_15,4609,12622.222223775729,12761.11111268171,12802.777779353506,12850.00000158154,13080.555557165471,9.39050364993476,-78.54210944651425,196.91369061590643,-66.32755587395016,25.003153361304165,1.2636334767488728,-44.439926814731066,128.79501979078628,-47.5705177072341,16.631582500957247,230.55555558393098,180.55555557777734,916.6666667794852,88.88888889982991,319.4444444837609,458.3333333897426,277.7777778119653,N
103_16,4939,13536.111112777096,13675.000001683078,13719.444446132991,13763.888890582908,13972.222223941882,7.105836860787832,-69.97978556675876,187.7534645281841,-61.25860577003846,24.37437630175927,-2.3499430757604616,-38.309758162391226,119.79585462763436,-40.18902895834975,14.819702208022008,208.33333335897441,183.33333335589487,877.7777778858144,88.88888889982991,297.2222222588043,436.11111116478605,252.7777778088912,N
103_17,5255,14413.888890662907,14552.77777956889,14597.222224018806,14641.66666846872,14855.555557383934,8.60228136189188,-68.65850997174057,184.5465224175822,-59.34393166196509,23.1231902206134,-1.1329433372099555,-37.6235761022356,118.45998611194744,-39.74639362252052,14.669698808818946,213.8888889152131,183.3333333558985,902.7777778888885,88.88888889982991,302.777777815043,441.66666672102656,258.33333336512806,N
103_18,5580,15316.666668551796,15455.55555745778,15500.000001907694,15544.44444635761,15780.55555749778,6.514862651316241,-72.43031894712988,187.19479190287697,-63.12953961369298,20.484132793132176,-2.214423681866702,-38.59551344335974,118.5431586256171,-44.730590530759216,14.300172887751817,236.1111111401715,183.3333333558985,866.6666667733334,88.88888889982991,325.0000000400014,463.88888894598495,280.55555559008644,N
103_19,5892,16200.000001993849,16322.222224231113,16366.666668681028,16411.11111313094,16647.222224271114,9.124268863411292,-73.36159833577595,190.8373290078694,-62.12939844879339,23.05668747919073,-0.9321332914163004,-41.774037544038414,125.67871941977558,-45.63713626744995,15.168374584229191,236.1111111401733,166.6666666871788,900.0000001107692,88.88888889982809,325.0000000400014,447.22222227726525,280.55555559008644,N
103_20,6216,17100.000002104618,17225.000002120003,17266.666668791797,17313.88889101983,17552.777779938122,9.715135885259937,-73.86530674985802,192.992751279224,-63.91762303350555,22.993310152273967,0.615388056247647,-40.97906179621188,122.77527559066472,-44.80998137981938,15.199089989036482,238.88888891829265,166.6666666871788,936.1111112263243,88.88888889982627,327.7777778181189,452.77777783350393,286.11111114632513,N
103_21,6553,18019.444446662223,18158.333335568208,18202.77778001812,18247.22222446804,18488.888891164446,6.830847857156435,-79.11342642342242,197.2295034328156,-67.09656390688838,21.67248206065476,-0.5689625497674623,-41.77152147986699,120.53158388582185,-47.82898415798769,14.482168657127753,241.66666669640472,183.3333333558985,888.8888889982918,88.88888889983355,330.55555559623826,469.44444450222363,286.11111114632513,N
103_22,6873,18922.222224551115,19047.222224566496,19091.666669016413,19136.11111346633,19366.666669050257,8.922799373663358,-80.5214949665354,203.1620416798993,-66.59649728448629,26.29614288466175,0.2407993124030177,-42.001942906264965,126.27216141986426,-45.3370237152522,18.19285501381305,230.55555558392734,169.44444446529815,847.2222223264944,88.88888889983355,319.4444444837609,444.44444449914226,275.0000000338441,N
103_23,7178,19780.555557990087,19897.222224671117,19938.888891342907,19986.111113570943,20202.777780264278,10.988555245311918,-75.0117387761801,194.18294764460023,-63.59614932333795,25.808353986905136,0.8643305184634926,-37.5916109502676,114.8880541264628,-39.09454428843021,17.916458105641194,216.66666669333426,158.33333335282077,841.6666667702557,88.88888889982627,305.55555559316053,422.22222227419115,263.8888889213704,N
103_24,7481,20616.666669204104,20738.88889144137,20780.555558113163,20827.7777803412,21033.33333592205,9.784556934991334,-70.52765674871931,182.1183223300845,-60.65851226371184,27.04880968182746,0.0895568755293226,-38.07873707302555,110.21428599868288,-37.74935615974566,17.682325827954365,205.5555555808496,163.88888890905946,833.3333334358977,88.88888889982991,294.4444444806795,416.6666667179452,252.77777780888573,N
103_25,7781,21444.44444708376,21569.444447099148,21613.88889154906,21658.333335998977,21877.77778047043,9.159981939624291,-78.53547539576104,201.24324217799057,-66.01047300728052,24.647836609385056,0.5965857484510955,-42.122488230179016,124.00077218012052,-42.56176097183285,16.615043953190675,219.4444444714536,169.44444446530179,877.7777778858144,88.88888889982991,308.3333333712835,433.33333338667217,263.8888889213704,N
103_26,8097,22327.777780525816,22450.00000276308,22491.666669434875,22538.888891662908,22763.8888916906,9.246203610336828,-81.00048659498137,205.06484062509836,-68.1853905830493,24.74397941681809,0.7949582466047125,-43.4402967808476,127.408643865071,-46.163594878462966,16.377581579744295,225.0000000276923,163.88888890905946,888.8888889982882,88.88888889982627,313.88888892751856,436.11111116478423,272.2222222557248,N
103_27,8417,23216.666669524104,23338.88889176137,23380.555558433163,23427.7777806612,23658.33333624513,9.432939665401925,-71.77284463276294,186.29336443223923,-60.944497664606295,23.18873298854313,-0.0844839650525904,-38.61066183101829,113.48451053905782,-39.240727356238125,14.924441860840034,230.55555558393098,163.88888890905946,894.4444445545305,88.88888889982991,319.4444444837609,441.66666672102656,277.7777778119671,N
103_28,8739,24097.22222518804,24230.55555853778,24275.000002987694,24319.44444743761,24563.88889191214,7.524932079822734,-74.62750702525467,187.8268184450704,-64.1050002397916,21.916231980697912,-0.3202246438106843,-39.49590029220449,114.4367397828228,-41.95824239830473,13.144017765407831,244.4444444745277,177.77777779965254,891.6666667764111,88.88888889982991,333.3333333743576,466.666666724097,288.8888889244445,N
103_29,9060,25036.11111419248,25125.00000309231,25166.666669764105,25213.88889199214,25430.55555868547,10.796813517378048,-77.3085398180437,196.71164901126505,-63.49887389073999,26.912058189247663,2.012158955176816,-40.36305061955475,119.45468671911324,-40.89716648621776,16.663139057334263,216.66666669333063,130.5555555716237,836.1111112140134,88.88888889982991,305.55555559316053,394.44444449299044,263.88888892136674,N
103_30,9361,25861.11111429402,25958.33333652821,26002.77778097812,26050.00000320616,26258.33333656513,12.879444720676313,-71.75442636551496,189.811330869082,-59.76166586582636,27.139743888411072,1.377871117251768,-36.7645747046119,115.18794677615212,-36.06464075843239,18.01563014770779,208.33333335896896,141.66666668409744,838.88888899214,91.66666667795289,300.00000003692185,397.2222222711098,255.55555558701235,N
103_31,9663,26686.11111439556,26797.222225520345,26841.66666997026,26886.11111442017,27111.111114447867,10.906294981514062,-76.19296477332352,195.4884705238,-65.29644125236491,22.96668539728017,1.5549859122282184,-38.41005966255175,113.52051283909248,-41.1704336074834,16.254451867009575,225.00000002769593,155.5555555746978,833.3333334359013,88.88888889982627,313.8888889275222,425.00000005230686,269.44444447760907,N
103_32,9963,27513.888892275216,27633.33333673436,27675.00000340616,27719.444447856076,27947.222225661884,10.021031732253446,-74.67577941541373,191.31110893528603,-62.78543171029534,25.06237316922538,0.2917062359339732,-37.12480256870013,112.6246527223513,-41.03859749939899,15.771056401188032,227.777777805808,161.11111113094375,877.7777778858108,86.11111112171784,313.88888892752584,433.3333333866685,272.2222222557248,N
103_33,10279,28380.55555904855,28511.111114620173,28552.77778129197,28597.222225741883,28844.44444799453,8.581104970289804,-80.1850743626162,201.36482781902595,-65.92522353415218,24.09121403926949,0.0939771621370181,-38.91375763774024,120.54815135037263,-44.87189825682303,15.2713785139264,247.22222225264704,172.22222224342113,883.3333334420495,86.11111112171056,333.3333333743576,463.8888889459813,291.6666667025602,N
103_34,10597,29266.66667026872,29394.444448062222,29436.11111473402,29483.333336962056,29722.222225880345,9.94055467016797,-78.79430155445677,196.83930857573247,-65.10878159403701,24.407591615935907,0.4789215309022199,-39.93141184394221,117.20895753307865,-41.62075612710924,17.8068125563596,238.888888918289,169.44444446529815,869.4444445514564,88.88888889983355,327.77777781812256,455.5555556116233,286.11111114632513,N
103_35,10910,30136.11111482017,30261.11111483556,30305.555559285476,30350.00000373539,30580.55555931932,9.038214690406331,-73.46263805917818,186.08217201903528,-63.33222131569338,21.58073265761055,1.0004829892336229,-38.59805691398213,111.97654198331414,-42.24063849541384,16.347292579534564,230.55555558393098,169.44444446530542,869.4444445514491,88.88888889982991,319.4444444837609,444.44444449914954,275.0000000338441,N
103_36,11223,31002.777781593508,31130.55555938701,31175.000003836925,31219.44444828684,31452.77778164889,8.960708494862109,-78.13099685335206,197.44947646159176,-67.4940492236445,25.93617496801839,2.422353033968616,-38.20872887078995,114.45512886927028,-44.78202883186927,17.28842758680992,233.33333336205033,172.2222222434175,825.0000001015396,88.88888889982991,322.22222226188023,450.00000005538095,277.77777781196346,N
103_37,11520,31869.44444836684,31958.33333726667,32000.000003938465,32047.2222261665,32266.66667063795,11.039911983481025,-74.02455579419971,190.75910306649035,-61.19459009454207,26.818944743512517,1.3839153846141996,-36.32579793687313,112.13131590393056,-37.69639542953541,18.44029626663626,219.44444447144997,130.5555555716237,786.1111112078615,88.88888889982991,308.3333333712799,397.2222222711098,266.6666666994861,N
103_38,11803,32627.77778179351,32744.444448474533,32786.11111514633,32833.33333737436,33041.666670733335,11.481813357014842,-76.80882667349687,196.83118855180663,-63.8972296598631,26.745841145679957,0.5737217416636664,-38.22112030144733,115.90861975689904,-39.55891786465786,17.64873766801083,208.33333335897623,158.33333335281714,816.6666667671816,88.88888889982627,297.2222222588025,413.88888893982585,255.5555555870087,N
103_39,12097,33438.88889300445,33558.33333746359,33602.77778191351,33647.222226363425,33858.33333750052,8.853422601805281,-70.36712271669538,184.27871287050493,-60.24203339512216,23.230384505029413,0.2506574670229775,-35.47453117423005,107.5722270628547,-37.30710704173215,15.517600944787754,211.11111113709194,163.88888890905946,827.777777879659,88.88888889983355,300.0000000369255,419.4444444960682,255.5555555870087,N
103_40,12395,34266.66667088411,34386.11111534325,34430.55555979317,34475.000004243084,34705.555559827015,9.281559644258504,-73.67733239483091,190.9666044674117,-62.2358121917346,22.29310749547342,0.5080201630372885,-35.790671754215204,109.44470912511424,-37.70115361264393,14.763226860620962,230.55555558393098,163.88888890905946,841.666666770252,88.88888889983355,319.4444444837645,438.8888889429072,275.00000003384775,N
103_41,12698,35113.888893210606,35230.555559891625,35272.22222656342,35319.44444879146,35544.44444881915,9.84179895355232,-77.94398745359716,197.5183458148036,-63.37785487874714,24.391212412061385,0.7134388477872372,-38.43778193968648,118.16906347509445,-41.442369050153,15.476541634415366,225.0000000276923,158.3333333528135,841.6666667702593,88.88888889983355,313.88888892752584,430.55555560854555,272.22222225573205,N
103_42,13001,35986.111115540174,36069.44444888376,36113.88889333368,36158.3333377836,36386.1111155894,9.489681828256396,-75.99390589878836,192.5099764332872,-62.86048596286778,24.09034557595714,3.485603259104895,-37.663460701986274,113.8947628060332,-39.48565253291181,17.123871746991636,227.77777780580072,127.77777779350436,830.555555657782,88.88888889984082,316.66666670564155,400.00000004922913,272.2222222557248,N
103_43,13300,36811.11111564171,36900.00000454154,36944.44444899146,36988.88889344137,37219.4444490253,8.974796676350559,-75.07102716441864,189.04429779904507,-63.35090666550308,23.37051238949404,1.6630490485217364,-39.49517047748444,111.83483562377336,-39.42859589339433,15.487781369311634,230.55555558393098,133.33333334975032,827.7777778796517,88.88888889982627,319.44444448375725,408.3333333835908,275.0000000338405,N
103_44,13598,37641.66667129949,37730.55556019932,37772.22222687111,37819.44444909915,38027.77778245812,11.141973470392834,-79.94552783414494,201.30672470949293,-64.74076801416288,28.81123746960284,1.8285473359765545,-38.21112947372721,114.76015252312024,-39.66221436324093,17.963805804893887,208.33333335896896,130.55555557162006,800.0000000984655,88.88888889983355,297.2222222588025,386.1111111586288,255.5555555870087,N
103_45,13886,38444.44444917607,38527.77778251966,38572.22222696958,38616.66667141949,38816.66667144411,12.151359786848516,-80.58285888266622,205.57907203796768,-66.17810990606873,30.258687767339307,3.400655453554068,-37.74647194010387,116.12923312473308,-38.87234080256298,17.903262803607202,200.00000002462184,127.77777779350436,786.1111112078652,88.88888889982627,288.8888889244481,372.2222222680357,244.44444447453134,N
103_46,14169,39208.33333815898,39316.66667150564,39358.33333817744,39405.55556040548,39616.66667154257,11.706218188877024,-75.41438111455606,194.5939450813246,-63.40593807444467,25.128134546311166,0.4160751614932962,-36.415872803074855,108.94968352458444,-36.71834289993791,16.068442061801832,211.11111113708466,150.00000001846638,811.1111112109356,88.88888889984082,300.0000000369255,408.3333333835908,258.3333333651244,N
103_47,14461,40041.66667159488,40125.00000493847,40169.44444938838,40213.888893838295,40441.66667164411,11.88889755674523,-73.42892990768945,188.41693733499085,-61.48975633746438,23.909333188309688,1.0974836069229998,-35.78181817833605,107.08303418057152,-37.27828765445973,15.304276297707256,227.77777780581528,127.77777779349708,855.5555556608597,88.88888889982627,316.66666670564155,400.00000004922913,272.22222225573205,N
103_48,14769,40858.333338362056,40980.55556059932,41025.00000504924,41069.44444949915,41313.88889397368,9.72798603067576,-83.9364397416424,209.53319197097227,-68.2487238809434,24.264773665487724,0.1396410262917083,-42.318966488704525,125.06155147470804,-45.231451294179095,14.286671570363502,244.44444447453134,166.66666668718244,869.4444445514528,88.88888889982627,333.3333333743576,455.5555556116233,288.88888892444083,N
103_49,15082,41733.33333846975,41850.00000515077,41894.44444960069,41938.8888940506,42166.666671856416,10.687034768500435,-79.0594452298944,201.1857594078674,-64.63288383618197,25.40447106366825,0.9652392787809456,-39.39668928563809,119.44351088417416,-40.57195105188104,15.287852194653135,227.77777780581528,161.11111113094375,836.1111112140134,88.88888889983355,316.6666667056488,433.3333333866685,272.2222222557248,N
103_50,15383,42577.77778301812,42686.11111636479,42730.555560814704,42775.00000526462,43000.00000529231,11.162218926611558,-74.56601631756322,191.73405417784107,-62.41216183839269,24.5450562586889,0.0449925984470159,-36.05043651671765,111.33887297460308,-38.45497238034245,16.67046904020855,225.0000000276923,152.7777777965821,833.3333334358977,88.88888889983355,313.88888892752584,422.22222227419115,269.44444447760907,N
103_51,15683,43400.00000534154,43519.444449800685,43563.8888942506,43608.33333870052,43836.11111650633,9.77086194343777,-77.52182328036218,199.0896954703433,-67.39996664067408,24.031564217320582,0.1447172899101593,-38.61416597004256,113.4227436071024,-41.92601944940619,14.905914000983962,227.777777805808,163.88888890905946,816.6666667671816,88.88888889983355,316.66666670564155,436.11111116478423,272.2222222557248,N
103_52,15977,44230.555560999324,44338.88889434599,44380.55556101778,44427.777783245816,44638.88889438291,12.474726536300755,-76.80872406821611,200.37357598429512,-63.87296062201765,27.237169239761485,1.4509669601565027,-36.12925184362339,112.7607328408634,-36.913963754700944,16.02762075921595,211.11111113709194,150.0000000184591,811.1111112109429,88.88888889982627,300.0000000369182,408.3333333835835,258.3333333651244,N
103_53,16269,45044.44444998838,45147.22222777881,45191.66667222873,45236.11111667864,45458.33333892821,14.126820020164828,-79.92706872957528,205.62004455423025,-65.74585163498206,24.606714133907747,1.9491001062290316,-37.81706748758725,117.57731666892636,-39.41986873793345,14.61340440123604,222.2222222495693,147.2222222403434,850.0000001046137,88.88888889983355,311.11111114940286,413.8888889398295,266.6666666994861,N
103_54,16575,45875.00000564616,45997.22222788342,46041.66667233334,46086.11111678325,46325.00000570154,9.051188135706438,-75.38134520327685,191.9878009186492,-62.99518204733063,21.820758411897497,-0.2368315980498848,-39.0889787892372,113.5476201614823,-41.58340208149211,13.946943490503536,238.88888891829265,166.66666668718244,863.8888889952214,88.88888889982627,327.7777778181189,450.0000000553846,283.33333336820215,N
103_55,16886,46727.777783528894,46861.11111687864,46905.55556132856,46950.000005778464,47191.66667247488,8.180494691748047,-82.98251210988239,202.82971613048244,-66.37487638808156,22.597101045977045,-1.0598330836315497,-40.35622234476883,119.02516506474274,-45.25516623299794,15.265383833979634,241.66666669641563,177.7777777996671,925.0000001138396,88.88888889982627,330.5555555962419,463.88888894598495,286.11111114631785,N
103_56,17219,47647.2222280865,47786.11111699248,47830.5555614424,47875.00000589231,48113.8888948106,8.504937304643677,-84.75914887551093,209.9959119780224,-70.50393225787019,25.605421130964125,0.4196135650140897,-42.99980767503233,127.52686513990172,-50.8122101325688,14.07133912459692,238.88888891829265,183.3333333558985,880.5555556639301,88.88888889983355,327.7777778181262,466.66666672410065,283.33333336820215,N
103_57,17536,48541.66667264103,48666.666672656414,48711.11111710633,48755.55556155625,48983.333339362056,9.298090139278992,-76.84452685510473,195.49273997427957,-64.73714329514803,26.10140278178304,0.5515284735433239,-39.73930266989982,117.62477372991542,-43.15530676733784,17.085732568677265,227.777777805808,169.44444446529815,836.1111112140134,88.88888889983355,316.66666670564155,441.6666667210229,272.2222222557248,N
103_58,17837,49413.8888949706,49505.55556164855,49547.222228320345,49594.444450548384,49813.88889501984,9.374715142765938,-78.13034559827865,197.4822730572628,-63.318709373245305,24.589206025130007,1.2858565332006435,-37.56491044072404,113.4722673766497,-40.21778211323867,15.630082855098497,219.4444444714536,133.33333334974304,858.3333334389754,88.88888889983355,308.33333337128715,400.0000000492364,266.66666669949336,N
103_59,18146,50233.33333951591,50361.11111730941,50405.55556175932,50450.00000620924,50663.88889512445,8.807468664570292,-78.48355474269367,201.5891495031018,-64.78134305959492,27.24771407416258,1.0229797236610256,-39.21146453311513,120.11808557061995,-42.59756717584132,16.6431692385829,213.88888891521492,172.22222224340658,830.555555657782,88.88888889982627,302.7777778150412,430.55555560853827,258.3333333651317,N
103_60,18445,51075.00000628616,51194.44445074531,51236.1111174171,51283.333339645134,51494.44445078223,10.025825326114507,-74.57299875298892,193.4367000627389,-63.176322088847286,26.21685181557023,0.3679192279174275,-36.2006820600121,109.0329655165259,-38.66835735677829,16.349537114058368,211.11111113709921,161.11111113094375,816.6666667671816,88.88888889982627,300.0000000369255,419.44444449607545,258.3333333651317,N
103_61,18739,51894.444450831455,52011.11111751248,52052.77778418428,52100.00000641232,52319.44445088377,9.833623321088712,-70.68388992529059,185.3840827783364,-59.87402640295844,22.632402653602256,0.2890142225143328,-34.93743736277097,104.61926838236688,-34.89020433071094,13.218869564537304,219.44444447144633,158.33333335282805,858.3333334389681,88.88888889984082,308.33333337128715,425.00000005231414,266.6666666994861,N
103_62,19048,52780.55556205163,52869.44445095146,52911.11111762325,52958.33333985129,53188.88889543522,10.638771306842935,-79.31017651527934,204.417124066828,-66.57124194067607,22.754779673774003,2.852944067547417,-39.91783733574751,120.1931701394898,-41.27248059585542,14.090290708707457,230.55555558393098,130.55555557162006,883.3333334420531,88.88888889983355,319.4444444837645,408.3333333835908,277.77777781197074,N
103_63,19366,53630.555562156245,53752.77778439351,53794.444451065305,53841.66667329334,54080.55556221163,10.05175299673364,-78.05695346047206,197.2948887738349,-64.55159051028363,22.194688624777434,1.1097382057328649,-37.960603370417424,115.1232489368831,-41.8985334179583,13.682905682942872,238.88888891829265,163.88888890905946,894.4444445545378,88.88888889982627,327.7777778181189,450.0000000553846,286.11111114632513,N
103_64,19688,54527.77778448889,54644.44445116992,54688.88889561984,54733.33334006975,54963.88889565368,10.810001527576755,-76.05761447762951,195.73487399238044,-64.45547608326498,22.42852265360383,1.510574215802512,-37.332781283955214,111.09485748002652,-40.24447051006606,14.64102744471601,230.55555558393098,161.11111113095103,838.8888889921291,88.88888889983355,319.4444444837645,436.1111111647915,275.0000000338405,N
103_65,19990,55369.44445125915,55486.11111794018,55527.77778461197,55575.00000684,55783.33334019898,10.493138696840068,-71.26100700245335,187.1522871882393,-59.06353284579248,25.556725549758823,0.2729824510440449,-34.40166989231144,107.18390508964784,-36.63277763025998,16.083535597283188,208.3333333589835,158.33333335282077,822.2222223234203,88.888888899819,297.2222222588025,413.8888889398295,255.5555555870087,N
103_66,20286,56191.66667358257,56308.3333402636,56350.00000693539,56397.222229163424,56627.77778474736,10.425052871789823,-78.1006775154907,199.6696138060671,-64.2830410053142,23.634882382885,0.8433079953273496,-37.06076868516711,114.0055482593006,-40.24342504117116,14.213504960152164,230.55555558393826,158.33333335282077,852.7777778827367,88.88888889982627,319.4444444837645,436.1111111647915,277.77777781197074,N
103_67,20593,57077.77778480274,57161.11111814633,57202.77778481813,57250.00000704616,57477.77778485197,11.28984552286206,-72.66733413272789,189.18644749163056,-60.96510383462604,21.69175765446031,0.8217194997703023,-34.20461298988166,104.5953764740967,-36.555384916419165,14.409234366004185,227.777777805808,125.00000001538865,833.3333334358977,88.88888889983355,316.66666670564155,400.00000004922913,275.0000000338405,N
103_68,20893,57888.88889601368,57994.44445158223,58036.111118254026,58083.33334048206,58316.666673844105,11.244440957935591,-73.7162800667582,187.948359882556,-61.385266673310106,21.945755236242405,-0.1414109520442711,-37.13797399075661,106.32123525367632,-36.48611774200204,13.856471008120163,233.3333333620467,147.2222222403434,852.7777778827367,88.88888889982627,322.22222226187296,427.77777783042256,280.55555559007917,N
103_69,21200,58716.66667389334,58847.22222946496,58888.88889613676,58933.33334058667,59177.7777850612,9.55709825309984,-86.09539088399411,209.9441044865093,-68.63297784294397,23.704342115240276,0.6122413063761518,-41.64144580756764,124.05365867248848,-47.42519439752145,14.142012208391836,244.44444447452406,172.22222224342113,880.5555556639301,86.11111112171056,330.5555555962346,461.1111111678547,288.88888892443356,N
103_70,21517,59594.44445177915,59727.77778512889,59769.44445180069,59813.8888962506,60058.333340725134,8.617646634665682,-82.16202740444808,203.5013569152299,-66.9106063941799,23.668092858339048,0.6408459489160315,-40.63010832382909,122.73079946405444,-47.89042270360864,14.584929483250091,244.44444447453134,175.0000000215441,888.8888889982845,86.11111112171056,330.5555555962419,463.88888894598495,288.88888892444083,N
103_71,21837,60480.555562999325,60613.88889634907,60658.33334079898,60702.777785248894,60927.77778527659,9.015283053678464,-76.28595077456909,191.24653648886945,-63.119460707103926,22.766302067708796,1.077289066716447,-37.304858437618414,112.37987217959125,-40.68848069513046,15.465156899171696,225.0000000276923,177.77777779965254,830.555555657782,88.88888889982627,313.88888892751856,447.2222222772616,269.44444447760907,N
103_72,22136,61327.777785325816,61444.44445200684,61488.88889645676,61533.33334090668,61750.00000760001,9.644397683724945,-76.76949340220348,196.07123179607245,-65.28116110462747,25.502790133746583,0.0439412080875654,-37.24425622185461,111.71751336670756,-41.6004360897774,16.77042999836328,216.66666669332335,161.11111113094375,797.2222223203426,88.88888889984082,305.5555555931642,422.22222227419115,261.1111111432474,N
103_73,22423,62158.3333409836,62244.44445210531,62286.1111187771,62333.333341005135,62552.77778547659,10.843879029794117,-71.84388102030223,185.8432056319216,-57.49582353755649,23.37904804577814,1.5209302629522243,-35.1816660895151,109.80287663562076,-35.865991688189226,15.02756838703751,219.4444444714536,127.77777779350436,844.444444548375,88.88888889982627,308.3333333712799,394.44444449299044,266.6666666994861,N
103_74,22727,62963.888896638295,63088.88889665368,63130.55556332548,63177.77778555351,63391.666674468725,8.946921194062337,-72.93279359420474,186.4345671925072,-60.81982237446991,23.741892553668084,0.6014980905898993,-36.42454133511726,108.14937215501118,-38.289609425663,16.383008306680445,213.88888891521492,166.66666668718244,830.5555556577747,88.88888889982627,302.7777778150412,427.77777783042984,261.1111111432474,N
103_75,23026,63791.666674517954,63919.44445231146,63961.11111898325,64008.33334121129,64227.777785682745,8.387738827923531,-74.75427390570283,187.29118780842768,-63.0378827665015,24.962221695469523,0.5217777597365287,-39.80281340227365,110.51247203864182,-39.02124568693504,16.087069008534996,219.4444444714536,169.44444446529815,836.1111112140206,88.88888889983355,308.33333337128715,436.1111111647915,266.66666669949336,N
103_76,23327,64627.77778573197,64752.77778574736,64797.22223019727,64841.66667464719,65072.22223023112,9.090619202243063,-77.36508284238232,196.68369003275689,-62.33943888000495,23.422980572293376,0.76703400033565,-38.60232770070234,118.6355162356888,-41.697223198780165,15.13834687414729,230.55555558393098,169.44444446530542,866.6666667733298,88.88888889982627,319.44444448375725,444.4444444991532,275.00000003384775,N
103_77,23639,65500.00000806154,65622.22223029881,65663.8888969706,65711.11111919864,65927.77778589197,9.83314107962919,-74.28245258440188,190.58596497166587,-59.790501261980026,23.14986894331954,0.4489776648637374,-36.82280331729166,114.60251879510793,-38.798033910652656,14.641015826353916,216.66666669333063,163.88888890905946,877.7777778858144,88.88888889983355,305.5555555931642,427.77777783042984,263.8888889213704,N
103_78,23955,66408.33334150667,66497.2222304065,66541.66667485642,66586.11111930633,66825.00000822463,9.208813859629212,-73.8290627424657,188.23642617013812,-62.00556575465542,20.02045048437928,2.0963442371676133,-36.12587031314619,110.60595819017868,-39.349677395363415,13.395190359253448,238.88888891829993,133.33333334974304,869.4444445514528,88.888888899819,327.7777778181189,416.66666671795247,283.3333333682094,N
103_79,24268,67255.55556383317,67366.66667495796,67411.11111940787,67455.55556385778,67677.77778610736,10.375614843173343,-69.88426034095902,182.3394501992001,-57.986191862366894,23.443353829924757,0.8708669171321625,-34.38104547497905,104.47491525869133,-34.760050879123106,14.285806398234964,222.2222222495766,155.5555555746978,813.8888889890659,88.888888899819,311.1111111493956,422.2222222741839,266.6666666994861,N
103_80,24561,68077.77778615658,68180.55556394701,68225.00000839694,68269.44445284684,68477.77778620581,11.002724149046466,-72.5573501217508,187.68980027990733,-58.742099127951306,25.98774847150208,0.7443162250950142,-36.65096852263023,112.4550336418556,-37.65088302389209,17.33341892187789,208.33333335896896,147.22222224035067,830.5555556577747,88.88888889983355,297.2222222588025,400.00000004922913,252.77777780887845,N
103_81,24860,68888.88889736753,69011.1111196048,69055.55556405471,69100.00000850462,69327.77778631044,9.675654707707244,-74.75781451239521,191.18041637708356,-61.82087944519711,22.936220838495476,0.0303210521666853,-37.15295189536608,115.04555522747756,-40.22123949753896,15.699722930880636,227.77777780582255,166.66666668717517,847.222222326498,88.888888899819,316.66666670564155,438.8888889429072,272.22222225573205,N
103_82,25165,69750.00000858463,69861.11111970941,69902.77778638121,69950.00000860923,70175.00000863693,10.119910540567602,-70.74470510408236,182.31471999040056,-59.3738476092252,21.759123055560885,-0.516348498642763,-37.60015060331193,108.2167569113146,-36.37666189829942,14.408583952264443,225.0000000276923,152.7777777965821,833.3333334358904,88.888888899819,313.8888889275113,425.0000000522996,272.2222222557175,N
103_83,25465,70580.5555642424,70691.66667536719,70736.1111198171,70780.55556426702,71011.11111985095,10.669579363477292,-76.4502432234477,195.14902262611335,-62.03408816039311,20.93845211238068,1.1077821720887535,-38.04189079594807,116.60004117374824,-39.47554854208971,13.697395168635625,230.5555555839237,155.5555555746978,855.5555556608597,88.88888889983355,319.44444448375725,430.55555560854555,275.00000003384775,N
103_84,25773,71419.44445323454,71550.00000880616,71591.66667547796,71636.11111992787,71877.77778662428,9.296460772984783,-79.73674091845531,199.74330792243583,-65.16406899953815,22.305030583216784,0.7149069783957656,-39.199797330621614,119.8648341333242,-45.11513359020165,15.474777801796789,241.66666669641563,172.22222224342113,858.3333334389754,86.11111112170329,327.7777778181189,458.33333338974626,286.11111114632513,N
103_85,26082,72283.33334222976,72408.33334224514,72450.00000891693,72494.44445336684,72736.11112006326,9.077577159446712,-72.7950003779158,185.12241076259247,-60.54954077946089,21.320735856325378,-0.0276156463736369,-36.64758179841677,110.02890322833922,-38.16527236337125,14.35618196685335,241.66666669641563,166.66666668717517,852.7777778827294,86.11111112170329,327.7777778181189,452.7777778335003,286.11111114632513,N
103_86,26389,73169.44445344992,73258.33334234975,73302.77778679966,73347.22223124959,73577.77778683351,9.374628186992656,-79.67855032636811,201.2185959037757,-64.7797951284871,24.65193883263557,2.574154873689425,-39.00734389496809,116.02263908336111,-40.88663948330839,15.44139381927122,230.5555555839237,133.33333334974304,819.4444445452973,88.88888889983355,319.44444448375725,408.3333333835908,275.00000003384775,N
103_87,26684,73966.66667577026,74080.55556467317,74122.22223134496,74169.444453573,74388.88889804445,11.119714253019632,-76.74452146594753,197.46876413183816,-62.76191874768613,26.81462473986868,1.02471224897977,-36.25767984450042,114.39961846796932,-39.091374737141145,16.83318406509308,219.44444447144633,155.5555555746978,805.5555556547042,88.88888889983355,308.3333333712799,422.2222222741839,266.6666666994861,N
103_88,26974,74777.7777869812,74883.33334254975,74927.77778699966,74972.22223144957,75191.66667592103,11.943453123327018,-73.68773204968159,190.4874374863327,-60.55492532691199,25.201158744079084,1.178051330470628,-35.54702148465431,110.21099468926906,-37.22817030317383,16.019771238636427,219.44444447146088,150.00000001846638,827.777777879659,88.888888899819,308.3333333712799,413.88888893983676,263.8888889213704,N
103_89,27272,75588.88889819215,75713.88889820753,75755.55556487932,75802.77778710736,76036.11112046942,8.710939025808536,-76.66549244859635,190.4292236610689,-64.11741892673689,22.29498735941776,1.1603402988356362,-38.2328501514735,109.2416125966562,-38.93536668744309,14.97049490882216,233.33333336205396,166.66666668717517,838.8888889921363,88.88888889983355,322.2222222618875,447.2222222772689,280.5555555900937,N
103_90,27574,76433.33334274052,76552.77778719967,76594.44445387146,76641.6666760995,76877.77778723967,10.521486458286365,-79.15454190174212,198.2840296407558,-65.08659347742822,24.834114138589975,0.7471260205208057,-38.40792586503954,114.70625708474611,-41.83188260352273,15.523038834438715,236.11111114016967,161.11111113094375,833.3333334359049,88.88888889983355,325.0000000400032,444.4444444991532,283.3333333682094,N
103_91,27874,77269.44445395454,77386.11112063557,77427.77778730736,77475.00000953539,77705.55556511933,10.576740873428736,-79.60784132363725,195.7835563657356,-63.7238060703697,23.38369417783478,-0.3960878941156063,-40.19143039555219,118.16489129122802,-43.35984360895299,15.609882250347754,230.55555558393826,158.33333335282805,866.6666667733225,88.888888899819,319.44444448375725,436.1111111647915,277.77777781196346,N
103_92,28186,78116.66667628103,78252.7777874089,78294.44445408069,78338.88889853061,78561.11112078017,7.491650398223452,-75.36427551811279,187.8125728713812,-61.51670719947559,23.767159824573103,0.4746527527447964,-36.10179191633056,110.8183184985732,-41.33052436784202,15.267376204690509,222.22222224956204,177.77777779965254,847.222222326498,86.11111112171784,308.3333333712799,444.4444444991386,266.6666666994861,N
103_93,28491,78969.44445416376,79100.00000973539,79141.66667640719,79188.88889863522,79405.55556532856,8.150731770396327,-72.02372331649536,179.73008841560758,-58.02253653115941,21.353880839237988,0.4157503811948206,-35.7580487431067,106.48524191559348,-37.20027936721527,13.659329957702331,216.66666669333063,172.22222224342113,813.8888889890659,88.88888889983355,305.5555555931642,436.1111111647915,263.8888889213704,N
103_94,28784,79827.77778760274,79913.88889872446,79955.55556539625,80002.77778762428,80208.33334320514,9.344027935943828,-68.637854125543,178.79951216220894,-56.676558522677226,24.91247661322782,0.7877517765673216,-33.074691488429,102.67239732495472,-31.842043967287594,17.833681092874155,205.5555555808678,127.77777779351163,777.7777778735035,88.888888899819,294.4444444806868,380.55555560240464,252.777777808893,N
103_95,29064,80605.55556547624,80691.66667659796,80733.33334326975,80777.77778771966,80983.33334330052,9.629709202102436,-71.19949865787044,183.88843028075644,-57.56707671620575,25.94013679944464,1.9723355689500948,-34.072847964443135,109.78967893082827,-36.25667163343921,17.160287811472962,205.55555558085325,127.77777779351163,777.7777778735035,86.11111112170329,291.66666670255654,377.7777778242744,250.00000003076275,N
103_96,29344,81361.11112112479,81469.44445447146,81511.11112114326,81555.55556559317,81780.55556562086,10.625650879812056,-72.62927156049541,187.39096809463263,-58.46921432497423,24.18248041078972,0.4944148360133001,-35.92055945845705,111.4895218762656,-38.20718454132405,15.831769962546169,225.0000000276923,150.00000001846638,850.0000001046137,86.11111112170329,311.1111111493956,419.4444444960682,269.4444444776018,N
103_97,29650,82227.77778789813,82316.66667679796,82361.11112124787,82405.55556569778,82627.77778794736,8.101197129704463,-75.06139445773785,188.99219639485017,-63.82083269861285,22.86198582709795,3.0474004995620465,-37.8130491712741,111.38185624803478,-40.11263240600397,15.289755273441092,222.2222222495766,133.33333334974304,847.222222326498,88.888888899819,311.1111111493956,400.00000004922913,266.6666666994861,N
103_98,29955,83069.44445466838,83163.88889912446,83208.33334357437,83252.77778802428,83480.5555658301,7.875117146298639,-76.86015521525536,193.6151889884001,-63.10403472868333,25.463640122161152,1.4969759387884116,-35.90959725786928,111.74324500076423,-39.78311722519136,16.289301687947233,227.77777780582255,138.888888905989,844.4444445483678,88.888888899819,316.66666670564155,411.11111116172106,272.22222225573205,N
103_99,30259,83883.33334365745,84011.11112145094,84052.77778812274,84100.00001035078,84322.22223260035,9.253962957991057,-78.09395304972362,199.73492226357743,-65.47519379647689,25.89373364229825,0.7010183689325957,-37.79261172323436,115.95013987992192,-41.90751607660439,15.35659743892314,222.2222222495766,169.44444446529087,875.0000001076987,88.88888889983355,311.11111114941014,438.8888889429072,269.44444447761634,N
103_100,30574,84761.11112154326,84883.33334378053,84927.77778823044,84972.22223268035,85183.33334381744,8.903329295523209,-71.31076043676688,188.95723692936096,-61.86175164248655,24.250665126470988,0.5381212584345133,-35.83019072176857,110.02909070154064,-36.88382493703841,16.099907988294216,211.11111113709921,166.66666668717517,850.0000001046137,88.888888899819,300.0000000369182,422.2222222741839,255.5555555870087,N
103_101,30880,85613.88889942599,85733.33334388514,85777.77778833505,85822.22223278496,86041.66667725642,8.734086161531334,-70.60611635193521,186.07847445315755,-60.70315195207562,23.940151629822044,0.3731037307454031,-36.66178182049885,108.97769830523744,-37.6073960521004,15.635634474050116,219.44444447146088,163.88888890905946,836.1111112140206,88.888888899819,308.3333333712799,427.77777783042984,263.8888889213704,N
103_102,31181,86483.33334397744,86572.22223287728,86613.88889954907,86661.11112177711,86869.44445513608,12.603955665246996,-71.83240226466506,189.00023113631727,-59.79889849973549,27.038363668378487,1.3138316235837526,-35.607579184229564,110.98000564784712,-36.268520870447794,16.662415701076895,208.33333335896896,130.55555557162734,825.0000001015433,88.88888889983355,297.2222222588025,386.11111115863605,255.5555555870087,N
103_103,31478,87308.33334407899,87397.22223297882,87438.88889965061,87486.11112187864,87702.77778857197,10.73487534139891,-70.46669744520287,184.42975199622515,-59.46484635546136,23.448427053542588,2.143543301297902,-35.38580102047083,110.80334760866776,-36.36241570793712,16.076757454285616,216.66666669333063,130.55555557162734,872.2222223295685,88.888888899819,305.5555555931496,394.44444449298317,263.88888892135583,N
103_104,31792,88133.33334418052,88266.66667753027,88311.11112198018,88355.55556643009,88597.22223312651,7.469409351416952,-75.9984829263858,193.68705423711503,-65.40267034526559,21.07458590244462,0.7422613585507047,-38.26416750122361,114.4384655185496,-42.44582485925303,14.072476395476976,241.66666669641563,177.7777777996671,900.0000001107692,88.888888899819,330.5555555962346,463.8888889459922,286.11111114632513,N
103_105,32116,89044.44445540378,89169.44445541916,89211.11112209095,89258.33334431899,89494.44445545916,9.031985400537168,-78.10350686388517,197.2790581309035,-65.5399975100068,23.802837311950736,-0.020480498998236,-40.2698814680364,119.5604341702824,-41.84020754098021,14.55356254503304,236.11111114016967,166.66666668717517,888.8888889982918,88.88888889983355,325.0000000400032,450.0000000553846,283.3333333682094,N
103_106,32436,89966.6666777395,90058.33334441745,90100.00001108924,90144.44445553915,90383.33334445744,9.4344971399735,-75.33299804922906,196.01564491718523,-62.65889879608788,23.113058640872097,3.515020647670689,-38.15164041883872,118.26917963475786,-42.62305956597957,14.492215103242774,238.88888891828537,133.33333334974304,894.4444445545232,86.11111112170329,325.00000003998866,416.6666667179379,283.3333333681949,N
103_107,32758,90813.888900066,90950.00001119386,90994.44445564377,91038.88890009368,91266.6666778995,8.268923276892815,-74.81341098294831,192.9932086429353,-65.22124702022549,24.91511876209488,1.0712920047238492,-39.33840299328392,117.98456288080072,-43.559053303814565,16.059290130090165,227.77777780582255,180.55555557776825,852.7777778827585,88.888888899819,316.66666670564155,452.7777778335003,272.22222225573205,N
103_108,33065,91675.00001128307,91805.55556685472,91847.22223352653,91894.44445575454,92111.11112244788,8.30048798283106,-75.29507905828096,190.2193842190061,-63.3636461569408,25.317642475824204,-0.2937263434822781,-39.886908293596406,115.44441571837214,-41.40305329774826,16.86399088438472,216.66666669334518,172.22222224345023,858.3333334389608,88.888888899819,305.5555555931642,436.11111116480606,263.88888892135583,N
103_109,33374,92569.4444558376,92663.88890029368,92705.55556696549,92752.77778919353,92966.66667810873,8.860376869333514,-79.49652326047729,199.8795626208243,-64.59518505659794,26.842895317016023,2.0667778794789924,-41.27139401588688,123.9906597207198,-42.72555900343919,17.507227634857774,213.88888891520037,136.11111112788785,844.4444445483532,88.8888888998481,302.77777781504847,397.222222271128,261.1111111432401,N
103_110,33678,93380.55556704856,93508.33334484206,93550.00001151384,93597.2222337419,93802.77778932276,8.451396406121601,-72.86009528436121,188.0403131672004,-61.887861666259006,25.524654687416756,0.9018520119558154,-37.78416563603393,111.36629667353154,-38.23359348271064,17.249605509517618,205.5555555808678,169.44444446527632,838.8888889921654,88.88888889983355,294.44444448070135,422.22222227419843,252.7777778089221,N
103_111,33980,94219.4444560407,94347.2222338342,94388.888900506,94436.11112273404,94666.66667831795,8.17638599760297,-73.05900966316726,186.43793629563487,-61.89228378504791,20.677537270249005,-1.1276894663731578,-36.85047330521127,108.82015316980224,-38.21767840490185,13.198041657795324,230.55555558390915,169.44444446530542,911.111111223232,88.8888888998481,319.44444448375725,447.22222227725433,277.7777778119489,N
103_112,34308,95125.0000117077,95258.33334505744,95300.00001172924,95347.22223395728,95577.7777895412,7.711669764835259,-82.52392846353986,205.1168696786552,-67.41517493832305,26.340167478339588,0.4014877210546227,-43.04576255202792,124.154609742475,-46.328764145749815,15.727950464554436,230.5555555839237,175.00000002153683,891.6666667764221,88.88888889983355,319.44444448375725,452.7777778335003,277.77777781196346,N
103_113,34629,96025.00001181848,96150.00001183384,96191.66667850566,96236.11112295555,96458.33334520514,8.462375432996613,-72.90978242192017,191.37201390734975,-61.99180129760887,25.990083118711507,0.4329204078810672,-38.37889297911256,115.40307864686538,-42.80563853135003,17.06309282237127,222.22222224959114,166.66666668717517,858.3333334389608,86.11111112171784,308.333333371309,433.33333338666125,266.6666666994861,N
103_114,34938,96919.444456373,97008.33334527284,97050.00001194462,97097.22223417266,97319.44445642224,9.379220049732522,-74.36070046333579,189.2805334568563,-63.709145742400025,22.39315747112998,1.0182725036366984,-38.41896902031602,110.44515770050722,-38.8783333766403,15.500297715672415,222.2222222495766,130.55555557161279,836.1111112140206,88.888888899819,311.1111111493956,400.00000004922913,269.44444447761634,N
103_115,35239,97733.33334536206,97841.66667870872,97886.11112315864,97930.55556760856,98141.66667874563,11.55977149397014,-78.9553055159031,200.39657084170776,-65.47412139423285,24.3040581372918,2.757643029645481,-39.24868588560972,118.66705068246924,-40.22899967872416,16.680546510745287,211.1111111370701,152.7777777965821,836.1111112140206,88.8888888998481,300.0000000369182,408.33333338357625,255.55555558699416,N
103_116,35540,98563.88890101985,98680.55556770088,98722.22223437266,98769.4444566007,98994.4444566284,11.485810599003042,-76.71862067326673,195.5502888161236,-63.72159457161048,24.36279299163892,2.060075740744645,-38.64840481720292,115.61274799021103,-40.612258014082,14.848589336971516,225.0000000276923,158.3333333528135,850.0000001046137,88.888888899819,313.8888889275113,430.55555560854555,272.22222225573205,N
103_117,35846,99408.33334556822,99530.55556780548,99572.22223447727,99619.44445670531,99841.66667895488,9.875175372183548,-71.560839772524,186.57356632357653,-60.78233973542255,22.4747251219401,1.123312796299144,-37.16462950556321,112.11010679202384,-38.4301982291222,13.991416255875391,222.22222224956204,163.88888890905946,855.5555556608451,88.88888889983355,311.1111111493956,433.33333338666125,269.4444444776018,N
103_118,36154,100297.2222345665,100386.11112346634,100427.77779013812,100475.00001236616,100702.77779017198,8.612727841990951,-73.74250747499244,189.61787373164,-62.03546937767059,22.69741888299553,3.094621406623467,-38.88224771443576,112.97761448038332,-40.0661649666,14.74320468296448,227.77777780582255,130.55555557161279,894.4444445545378,88.888888899819,316.66666670564155,405.5555556054751,275.0000000338623,N
103_119,36476,101144.444456893,101280.55556802086,101322.22223469266,101366.66667914258,101625.0000125077,8.438390102816326,-85.76669452124031,210.6095717268987,-71.45284832508526,22.88515114883763,0.7044725579050783,-44.66335174181962,130.41129319523478,-54.48709244521004,15.57458802275011,258.3333333651244,177.77777779965254,911.1111112232466,86.11111112171784,344.44444448684226,480.555555614701,302.77777781504847,N
103_120,36804,102058.33334589437,102188.888901466,102233.3333459159,102277.77779036584,102516.66667928411,8.611422313376792,-79.15905722267375,198.959785003432,-66.9353603141338,21.76973001477832,0.5260615774168873,-40.43811663148985,118.40945763649675,-44.37498617632959,15.615991244528518,238.88888891827082,175.00000002153683,863.8888889952214,88.8888888998481,327.7777778181189,458.33333338974626,283.3333333682094,N
103_121,37115,102933.33334600208,103055.55556823932,103097.22223491113,103141.66667936103,103363.8889016106,9.006173364315478,-72.12209665862746,186.2716805199219,-61.88686760877204,23.10811522918726,-0.8252945489041672,-38.85169509172473,112.27640293973104,-40.28030285900843,15.32400740629186,222.22222224956204,163.8888889090449,841.666666770252,86.11111112171784,308.3333333712799,430.55555560851644,266.66666669947153,N
103_122,37418,103772.2222349942,103894.44445723148,103938.88890168138,103983.33334613129,104197.2222350465,9.272005508299053,-77.07950771057514,198.9535825263457,-64.26593987880277,28.200720104299645,0.918893359063494,-41.41354223292854,122.0367755669523,-42.43530830402127,18.080663888433232,213.88888891521492,166.66666668717517,833.3333334359049,88.88888889980444,302.77777781501936,425.0000000522996,258.3333333651244,N
103_123,37718,104602.77779065198,104730.55556844547,104772.22223511728,104819.44445734532,105036.11112403864,9.619034669532162,-76.18883451220118,196.32872356359357,-64.41639907604271,25.811404318839696,0.362440310613724,-40.04221640797101,121.32468041097762,-41.35771637042895,16.48211708142492,216.66666669331607,169.44444446530542,855.5555556608306,88.8888888998481,305.5555555931642,433.33333338666125,263.88888892135583,N
103_124,38026,105463.88890186908,105586.11112410632,105627.77779077811,105675.00001300617,105883.33334636514,8.592088575645679,-69.66312494980723,183.3136551555472,-60.05963833844234,24.22863586279434,0.1680259317569884,-35.61898160970922,107.87682749754246,-36.08131388961547,16.00596730954098,208.33333335896896,163.88888890903036,850.0000001046283,88.8888888998481,297.22222225881706,419.4444444960536,255.55555558702326,N
103_125,38332,106308.33334641744,106436.11112421096,106477.77779088274,106525.00001311078,106747.22223536036,8.24371673895437,-74.3934743333571,194.8243178134445,-63.8992427890898,24.503714027603344,0.6772001683546586,-37.56806401899223,115.77044095247628,-39.87843491731604,15.539461095063071,222.2222222495766,169.44444446530542,875.0000001076987,88.888888899819,311.1111111493956,438.88888894292177,269.44444447761634,N
103_126,38647,107172.22223541266,107311.11112431865,107352.77779099044,107397.22223544036,107644.444457693,8.190749062052435,-83.92305474814553,210.13006808476223,-70.12964656000273,21.51752555742259,1.0121760156025783,-42.92314108763161,129.64576605839497,-50.716643363246334,13.798388275720106,247.2222222526325,180.5555555777828,908.3333334451163,86.11111112171784,333.33333337435033,472.22222228033934,291.66666670255654,N
103_127,38974,108088.88890219216,108219.44445776378,108261.11112443556,108308.3333466636,108530.55556891316,7.7781820287832275,-74.79172406448393,188.45413732025855,-61.11949985333705,23.093184361297546,0.4358091835721911,-38.98089917993056,114.3058912478029,-39.275636285356526,15.78930121974117,222.22222224956204,172.22222224339203,861.1111112171056,88.888888899819,311.11111114938103,441.6666667209938,269.4444444776018,N
103_128,39284,108955.55556896549,109077.77779120277,109122.22223565266,109166.66668010256,109375.00001346155,9.293400753602375,-68.94902489559412,182.8114465657337,-58.25391024302789,24.149383205642376,1.641383671965596,-35.8763730466121,110.30699855059086,-36.1258178389128,15.405370672350156,208.33333335899806,166.66666668717517,816.6666667671816,88.88888889978989,297.22222225878795,419.4444444960682,252.777777808893,N
103_129,39578,109783.33334684516,109897.22223574804,109938.88890241984,109983.33334686975,110205.55556911931,10.292978412485349,-69.13038078831532,181.3385247932756,-57.24414660386502,23.47076439504877,1.0799240863586708,-35.15614915974562,110.63119801885873,-36.40135357817321,15.322741965626488,222.22222224956204,155.55555557468324,819.4444445452973,86.11111112171784,308.3333333712799,422.2222222741548,266.66666669947153,N
103_130,39873,110605.55556916856,110713.88890251525,110758.33334696514,110802.77779141504,111033.333346999,11.483203009077103,-68.29463254401902,176.1959425803579,-56.037249067803785,20.23717661439405,-0.3376034043899224,-35.09235032441739,106.24051168101478,-35.72691273782174,13.814224349041302,230.55555558396736,152.7777777965821,847.222222326498,88.88888889978989,319.44444448375725,427.7777778304444,275.0000000338623,N
103_131,40178,111427.77779149196,111561.11112484171,111605.55556929164,111650.00001374156,111883.3333471036,9.309157215799695,-75.31891528027649,193.1564057567776,-62.42702527770557,23.311177564841664,1.5716437688462073,-39.37319637440245,119.62162641444652,-41.59477733795188,13.61009375850723,233.3333333620394,177.77777779968164,838.8888889921363,88.8888888998481,322.2222222618875,455.5555556116451,277.77777781196346,N
103_132,40480,112277.7777915966,112402.77779161198,112444.44445828378,112491.6666805118,112725.00001387384,9.76201935286127,-75.28587475447634,190.8432095890335,-61.99194212338481,21.53800784907501,0.7683399542552868,-37.2995884035843,112.5768470719336,-39.28321329411051,15.13245849821284,233.3333333620394,166.66666668717517,855.5555556608597,88.888888899819,322.2222222618584,447.2222222772398,280.5555555900646,N
103_133,40788,113133.33334725744,113255.55556949473,113300.00001394463,113347.22223617266,113583.33334731284,9.468787547422618,-75.9496468049102,192.0069232328021,-63.62675873248835,21.11886821758376,0.5093505141348209,-39.901024438295785,115.1123363440386,-39.74799801627385,14.153182050224112,236.11111114018422,166.66666668718972,880.5555556639301,91.6666666779347,327.7777778181189,450.00000005539914,283.3333333682094,N
103_134,41105,114002.7777918089,114138.88890293676,114180.55556960856,114227.7777918366,114472.22223631112,8.205185090434306,-83.87084809934179,206.46904200438505,-66.885895397931,23.4298164943274,0.1536364606404892,-41.11031984866043,125.3724496140224,-45.16316056805736,14.166055514738003,244.44444447451679,177.7777777996671,855.5555556608306,88.8888888998481,333.3333333743649,469.44444450222363,291.66666670255654,N
103_135,41413,114875.00001413848,114994.44445859762,115036.1111252694,115083.33334749744,115308.33334752514,10.865161403667852,-77.43415643567275,196.91863168682303,-62.99854561331587,24.08514296372508,0.971570473107276,-39.090742036239625,118.7785099318285,-40.687133182378304,16.06258995293558,225.00000002770685,161.11111113091465,813.8888889890804,88.888888899819,313.88888892752584,433.33333338666125,272.2222222557466,N
103_136,41706,115700.00001424,115808.33334758668,115850.00001425848,115897.22223648652,116116.66668095796,12.054388282357255,-71.78378665239423,186.3844437466456,-59.73737680150864,23.663565570724465,0.438958522391315,-37.011570796804754,111.14278481619895,-37.48402325607839,15.474566274506593,219.44444447144633,150.00000001848093,805.5555556547042,88.88888889983355,308.3333333712799,416.666666717967,266.6666666994861,N
103_137,41996,116494.44445878224,116613.8889032414,116655.55556991318,116702.7777921412,116916.66668105642,10.353264813795809,-73.69625549922873,191.38534689163683,-61.04375994892782,26.256455998062343,0.2299235736270846,-35.27588038730666,110.91404124330666,-36.50686883209296,17.81237660020674,213.88888891521492,161.11111113094375,805.5555556547042,88.88888889980444,302.77777781501936,422.2222222741839,261.1111111432401,N
103_138,42286,117294.4444588807,117416.66668111796,117461.11112556788,117505.5555700178,117727.77779226736,9.832629819202872,-80.74223588478976,202.5272795739508,-65.37574355152579,25.037425544115408,0.4594044881453377,-40.63423733072912,125.88651117936188,-45.08834766836526,15.894626864871189,222.22222224956204,166.66666668718972,847.2222223264689,88.88888889983355,311.1111111493956,433.33333338666125,266.66666669947153,N
103_139,42591,118130.55557009472,118266.66668122256,118308.33334789435,118355.5555701224,118580.5555701501,8.456191771088458,-76.59926042435981,195.4027342331228,-62.27595638880253,23.28670869519741,1.021491362587568,-37.6312969176682,117.7300087013045,-40.64064686738048,15.296291651230655,225.00000002770685,177.777777799638,861.1111112171056,88.88888889983355,313.8888889275404,450.0000000553846,272.2222222557466,N
103_140,42901,118994.44445908992,119127.77779243968,119169.44445911146,119216.6666813395,119444.4444591453,8.084818274981524,-76.9497588737412,192.49655951340344,-64.11771719872462,21.251850437285896,-0.1181285217055893,-40.50834342285519,116.01279062395602,-41.12794101890604,15.062021882756232,227.777777805808,175.00000002153683,838.8888889921363,88.888888899819,316.666666705627,450.0000000553846,275.00000003384775,N
103_141,43203,119841.66668141642,119963.88890365369,120008.3333481036,120052.77779255352,120294.44445924992,9.668401860941511,-82.76295117767155,206.47186569852067,-68.30351403883029,21.737900632093808,0.2155052815417595,-41.401483762562464,124.5791977481395,-45.06884041910139,14.151865176354235,241.66666669640108,166.66666668717517,883.3333334420604,88.88888889983355,330.5555555962346,452.7777778335003,286.11111114632513,N
103_142,43521,120716.66668152412,120850.00001487386,120891.66668154566,120938.8889037737,121163.8889038014,8.305681089915542,-79.99688218823748,202.32914943885956,-65.76371175383743,25.444108764601115,1.164646925294185,-38.66897506140816,117.92388594111976,-41.3334919935983,15.637003851432388,225.00000002770685,175.00000002153683,850.0000001046283,88.88888889983355,313.8888889275404,447.22222227728344,272.2222222557466,N
103_143,43827,121566.66668162872,121700.00001497848,121741.66668165028,121786.11112610018,121991.66668168105,9.791008090348091,-73.52435159312861,192.56592958635792,-61.49987949692749,26.48148178638264,1.32045513017994,-34.544352728888335,109.23294606225096,-36.59331803823925,17.363450751999817,205.5555555808678,175.00000002156594,794.4444445422123,86.11111112170329,291.6666667025711,425.0000000523287,250.00000003076275,N
103_144,44113,122386.11112617404,122494.4444595207,122536.1111261925,122583.33334842052,122791.6666817795,11.31023922904297,-70.80896382546447,185.61621344403704,-60.93354004706872,23.708120126412226,-0.4064783017639338,-34.983991357710806,104.93712937420864,-34.07675394490677,16.3231282015305,208.3333333589835,150.00000001845183,808.3333334328199,88.888888899819,297.2222222588025,405.55555560546054,255.5555555870087,N
103_145,44404,123197.22223738497,123300.0000151754,123344.44445962532,123388.88890407524,123611.1111263248,13.57557901594588,-75.87435261951539,199.17532851587976,-63.06326903698133,23.816704099759335,1.4430511522652425,-36.385329940435206,113.4130282858123,-38.0366162013893,14.744522420074611,222.22222224956204,147.22222224035067,833.3333334358904,88.88888889983355,311.1111111493956,413.88888893983676,266.6666666994861,N
103_146,44704,124016.66668193028,124136.1111263894,124177.7777930612,124225.00001528925,124458.3333486513,10.725078452773086,-80.25414893207036,203.6419789092202,-66.26382800859427,22.930748474066007,0.6002887123789833,-38.60034957785575,120.17453847773152,-42.29424747425328,13.545226346342517,233.33333336205396,161.1111111309292,861.1111112170911,88.8888888998481,322.22222226190206,441.6666667210229,280.5555555900937,N
103_147,45014,124877.77779314735,124997.2222376065,125038.8889042783,125086.11112650634,125325.00001542462,10.145273527205452,-81.23497458048331,204.409707673102,-67.46915157908724,20.64301744768748,-0.1330920945233098,-37.44376196788833,115.00141496270744,-40.61667362796027,13.296864356637023,238.88888891828537,161.11111113094375,858.3333334389754,88.88888889983355,327.7777778181189,447.2222222772689,286.11111114632513,N
103_148,45323,125763.88890436752,125855.55557104548,125897.22223771727,125944.44445994533,126169.444459973,9.00482843558193,-73.49210257033994,189.8149654285471,-61.856633399431175,21.916118246496588,0.9544852890366816,-35.328018233398964,107.22963122341991,-35.272907858066645,13.764774974199456,225.00000002767774,133.3333333497576,850.0000001046283,88.8888888998481,313.88888892752584,405.55555560548964,272.22222225573205,N
103_149,45629,126577.7777933566,126702.77779337198,126747.2222378219,126791.6666822718,127027.77779341198,8.914341991638167,-82.81418534257087,206.8794199720272,-66.79389359684566,22.911696613622222,0.0340600499201626,-40.08615559255544,121.5394741524632,-42.876803745267495,14.07785983773193,236.11111114018422,169.44444446530542,836.1111112140206,88.888888899819,325.0000000400032,450.0000000553846,280.55555559007917,N
103_150,45930,127433.33334901746,127538.888904586,127583.33334903592,127627.77779348585,127847.22223795728,12.48233507227943,-72.52488141521307,191.6433949222107,-59.58615443434633,23.46164408167954,1.2193462964636672,-34.03968967493693,108.45138715473706,-34.98453426911329,14.574104004008843,219.44444447143178,150.00000001846638,794.4444445421977,88.8888888998481,308.3333333712799,413.8888889398222,263.88888892135583,N
103_151,46216,128233.33334911591,128333.33334912822,128377.77779357812,128422.22223802804,128633.33334916514,11.996588243625393,-67.68011213796116,179.18451870635525,-55.88385439585838,21.417942585441388,1.7346458744906734,-31.725491128725945,101.02662978253296,-32.69820462998599,13.872386840329511,211.11111113709921,144.44444446220587,783.333333429764,88.888888899819,300.0000000369182,400.00000004922913,255.55555558702326,N
103_152,46498,129011.11112698942,129119.44446033608,129161.11112700788,129205.5555714578,129433.3333492636,10.626071863174625,-72.74442472612405,186.74594080293096,-60.70429215882241,22.362340741912583,0.8292123711544217,-35.71765868096448,108.74762680449018,-37.85595975127708,13.87628151709096,227.777777805808,150.00000001846638,794.4444445422123,86.11111112171784,313.88888892752584,422.2222222741839,272.2222222557175,N
103_153,46784,129827.7777937566,129913.8889048783,129955.5555715501,130002.77779377814,130244.44446047457,12.632449887695794,-80.78652002775578,204.9672999612272,-66.00809403452769,22.178107161114937,2.975911023432417,-37.67568489084104,119.36427057308484,-40.57052951656679,14.935498230380707,241.66666669643018,127.77777779349708,852.777777882744,88.88888889983355,330.55555559626373,416.666666717967,288.88888892446994,N
103_154,47091,130672.22223830497,130766.66668276105,130808.33334943284,130852.77779388276,131097.22223835727,9.022510026754569,-86.03149978194938,211.57427300203668,-69.72169241366367,22.85221450908868,3.3864757271780013,-37.560944979306285,121.71085916985044,-45.12531329425628,13.594442083155716,244.44444447450223,136.1111111278733,830.5555556577601,86.11111112171784,330.5555555962201,425.0000000522996,288.8888889244263,N
103_155,47390,131480.5555717378,131597.22223841882,131638.8889050906,131686.11112731864,131919.4444606807,10.44193916698633,-76.96882977216174,195.40784720628903,-62.9768500684196,21.800409940981957,-0.0983040007309684,-34.70845360504966,110.78874263551626,-38.534246326502185,14.552496717948504,233.33333336206852,158.3333333528135,813.8888889890804,88.888888899819,322.2222222618875,438.88888894292177,280.55555559010827,N
103_156,47683,132297.22223850497,132408.33334962977,132452.77779407968,132500.00001630772,132730.55557189163,10.121638115217362,-70.74569710161579,181.44658137259125,-57.35537869649178,20.828920526999653,0.3565538791020879,-35.28389873342097,105.4196018033332,-33.57239758095113,13.236506344568236,230.55555558390915,155.55555557471234,819.4444445452827,91.66666667794925,322.2222222618584,433.33333338666125,277.7777778119489,N
103_157,47978,133113.88890527215,133230.55557195318,133272.22223862496,133319.444460853,133555.55557199317,9.996874212073038,-74.68478873771299,189.51409932129383,-58.10518794079651,22.382982085738387,-0.1137583480555623,-35.381019188759,111.07066139864988,-35.03692977291737,13.99740146465462,236.11111114016967,158.3333333528135,788.8888889859954,88.888888899819,325.00000003998866,441.6666667210229,283.3333333682094,N
103_158,48262,133919.44446092684,134019.44446093915,134061.11112761096,134108.333349839,134330.55557208855,12.821604887306304,-75.21034396279629,192.3126847915424,-59.39107207142801,23.785209075993127,0.9242782250863512,-32.77981622928938,107.95052696886523,-33.59691775780004,14.236148904561858,222.22222224954749,141.66666668411926,775.0000000953733,88.8888888998481,311.1111111493956,411.1111111617065,269.44444447758724,N
103_159,48541,134691.6666832441,134794.44446103455,134836.11112770633,134883.33334993437,135102.77779440582,12.108422440525793,-71.81015422425949,186.0178813226778,-58.60415912506028,22.167726323435765,0.4840869611192998,-32.115800914714,105.22255972019546,-33.51602143873072,15.180546873705218,219.44444447144633,144.44444446222042,791.6666667640966,88.888888899819,308.3333333712653,411.1111111617065,266.6666666994861,N
103_160,48826,135466.6666833395,135583.33335002052,135627.77779447043,135672.22223892037,135900.00001672618,9.672212217333724,-72.48564774907605,184.82286325137684,-59.632653261648095,21.476723231076598,-0.4148274356038555,-34.797379558375994,108.5281473619549,-36.99118982983608,13.839826892168167,227.777777805808,161.11111113091465,800.0000000984874,88.8888888998481,316.6666667056561,433.33333338666125,272.2222222557466,N
103_161,49114,136263.88890565984,136386.1111278971,136427.77779456892,136472.22223901885,136711.1111279371,9.356834862221582,-76.16438103107924,192.6650800676381,-61.59650346895174,22.149931934517603,0.3346603063756725,-35.34897851819758,112.63834524411324,-39.038110141421086,12.46904610706926,238.88888891824172,163.888888909074,855.5555556608306,86.11111112174694,325.00000003998866,447.22222227725433,283.3333333681803,N
103_162,49422,137111.11112798634,137241.66668355797,137283.33335022975,137327.77779467969,137572.22223915422,8.368043335711112,-81.44951060635739,203.97537275439987,-66.25588273234837,22.13259891639932,0.2423334554101778,-38.956259634302256,123.48096321220495,-46.96963301290519,13.515438366070205,244.44444447453134,172.22222224340658,850.0000001045992,86.11111112171784,330.5555555962492,461.1111111678765,288.88888892446994,N
103_163,49728,138000.00001698462,138091.66668366257,138133.33335033435,138177.77779478428,138413.88890592445,9.542412404932994,-78.37584388083522,197.4269706907517,-63.11961912707415,23.691616641790027,1.9203357106273409,-35.61898966645397,115.78409744658248,-41.32945915065034,15.119375676314313,236.11111114016967,133.3333333497285,822.2222223234421,86.11111112171784,322.2222222618875,413.88888893983676,280.55555559010827,N
103_164,50024,138827.7777948643,138913.888905986,138955.5555726578,139002.77779488583,139227.7777949135,9.797373481271414,-70.94335504950642,184.49787387209784,-59.28282495959759,21.390152454168117,1.7509633246703924,-33.17351060160017,103.76335953841576,-34.080340123382584,14.136460947623345,225.00000002767774,127.77777779349708,836.1111112140352,88.888888899819,313.88888892749674,400.0000000492146,272.2222222557175,N
103_165,50325,139661.1111283002,139747.22223942188,139791.66668387182,139836.11112832173,140063.88890612754,9.594020487481334,-76.234141287113,195.3062297530956,-62.89405391143208,24.354852003426437,2.8760218234703263,-36.34393560331339,108.96792487092826,-37.54042317810081,15.982160870000094,227.777777805808,130.55555557162734,813.8888889890513,88.8888888998481,316.6666667056561,402.77777782734483,272.2222222557175,N
103_166,50618,140452.7777950643,140563.88890618907,140605.55557286087,140650.00001731078,140872.22223956036,10.861055323547053,-76.17298581089715,197.2059989108688,-62.169459939336825,25.63201519908575,0.2525149739239901,-34.12132133757723,109.22824957998424,-37.21479474888265,15.488665951254587,222.2222222495766,152.7777777965821,802.7777778765885,86.11111112171784,308.33333337129443,419.4444444960682,266.6666666994861,N
103_167,50907,141252.77779516275,141363.88890628752,141408.33335073746,141452.77779518737,141666.6666841026,10.92977713926826,-80.44517288414062,204.0449576721872,-65.16460278339548,24.91916252990578,0.8081923940873391,-37.42623533980132,117.9668796814645,-41.19015422627974,15.151307425455837,213.88888891521492,155.55555557471234,841.6666667702375,88.8888888998481,302.777777815063,413.88888893983676,258.3333333651244,N
103_168,51210,142075.00001748616,142205.5555730578,142250.0000175077,142294.4444619576,142511.11112865095,9.01285433493094,-75.78471121568764,192.1544851164753,-62.74348646919706,23.17444017852056,0.4517469960018675,-36.87593748796584,110.46288315949444,-38.108015236627,15.91551385723202,216.66666669334518,175.00000002153683,858.3333334389899,88.888888899819,305.5555555931642,436.1111111647915,261.1111111432547,N
103_169,51519,142933.33335092515,143066.66668427488,143108.3333509467,143155.55557317473,143386.11112875864,8.153394775219873,-75.33508031777794,194.89788518624783,-63.641666976070354,20.58813977625684,0.797380669251969,-36.5418280918667,113.16429598365973,-38.69082012818724,11.922355865771223,230.55555558390915,175.00000002153683,891.6666667764075,88.8888888998481,319.44444448375725,452.77777783348574,277.7777778119489,N
103_170,51840,143866.66668437334,143958.3333510513,144000.0000177231,144047.22223995114,144275.00001775695,8.394298847382093,-82.01139225723475,204.85492956226972,-68.1895722857172,22.748412095355377,2.396561871650034,-40.52832266425555,121.73416026513227,-43.36821849632916,14.26547279581746,227.777777805808,133.3333333497576,855.5555556608597,88.8888888998481,316.6666667056561,408.33333338360535,275.00000003384775,N
103_171,52148,144694.444462253,144813.88890671215,144855.55557338396,144900.00001783387,145116.66668452718,10.117041345042557,-71.64141853289325,187.36895271198983,-58.86398105318721,22.52139534064077,1.917960127481208,-34.82301778280694,112.51373501707086,-38.7314784143444,15.38598356249616,216.66666669331607,161.11111113094375,830.5555556577747,86.11111112171784,302.7777778150339,422.2222222741693,261.11111114322557,N
103_172,52447,145527.77779568892,145644.44446236992,145686.11112904173,145733.33335126977,145958.33335129745,9.704018199288678,-72.85681416772374,187.67989231013385,-61.92661830060675,22.027331987071356,0.9089320050012936,-37.4526714629462,112.28107892058428,-38.350191305920205,15.691433187554187,225.00000002767774,158.3333333528135,841.6666667702375,88.8888888998481,313.88888892752584,430.555555608531,272.2222222557175,N
103_173,52750,146397.22224024037,146483.33335136206,146527.77779581197,146572.2222402619,146780.55557362086,10.493205801382835,-72.48684446743317,188.69568269941607,-58.906669811368445,22.66736953076668,1.5257942916090166,-35.79302523914994,111.17733426820315,-36.30966207589925,15.814800245485564,208.3333333589544,130.55555557159823,819.4444445453119,88.8888888998481,297.2222222588025,383.33333338049124,252.777777808893,N
103_174,53045,147197.22224033883,147305.55557368547,147347.22224035728,147394.44446258532,147594.44446260994,12.084179411874208,-71.47120084456722,188.7240325154821,-58.28559441755647,23.679133223851384,1.1513871404716105,-34.58119304411768,112.0824717016367,-34.682141478046915,16.308514788376712,200.00000002462184,150.00000001845183,808.3333334328199,88.8888888998481,288.88888892446994,397.2222222711134,247.2222222526616,N
103_175,53336,148002.77779599352,148113.8889071183,148155.5555737901,148200.00001824,148430.55557382395,11.691020903175058,-68.82792217887331,180.5236923719356,-56.54062278483395,19.90323725811164,0.9781545153259036,-32.43081493651492,104.94179695490288,-34.72314006394517,13.445519321528003,230.55555558393826,152.7777777965821,847.222222326498,86.11111112171784,316.6666667056561,427.77777783042984,275.00000003384775,N
103_176,53641,148838.88890720753,148958.3333516667,149002.7777961166,149047.2222405665,149288.8889072629,9.238285554871672,-73.53099979776216,188.62913089523968,-62.07126148967368,18.17573424615697,0.8076239689295743,-37.70128897811527,112.113752324721,-40.65377357475666,11.9026791599989,241.66666669640108,163.888888909074,863.8888889952214,88.888888899819,330.5555555962201,450.0000000553846,286.1111111463106,N
103_177,53952,149702.77779620275,149825.00001844,149866.66668511182,149913.88890733983,150158.33335181436,9.407123488128343,-80.72936684166605,200.512536416786,-65.43924334048383,21.64769631930094,0.6442392459400813,-38.92932910289494,118.73610950177216,-42.59646821305547,13.407693324143647,244.44444447453134,163.888888909074,844.4444445483678,88.888888899819,333.33333337435033,455.555555611616,291.666666702542,N
103_178,54256,150561.11112964174,150669.44446298838,150711.1111296602,150755.5555741101,150988.88890747217,10.98223244649516,-75.27200988643473,194.5959603427064,-60.40744824206735,22.82324279975069,1.2498580438614957,-35.4117663175686,114.75719796271623,-40.1847930867621,13.794257852386746,233.33333336206852,150.00000001845183,816.6666667671816,86.11111112171784,319.44444448378636,427.77777783042984,277.777777811978,N
103_179,54550,151377.77779640892,151486.11112975556,151527.77779642737,151575.0000186554,151788.88890757062,11.16821079299966,-71.26995947931805,181.8891048875498,-56.98420527451916,21.83828206670206,0.7324249560825051,-33.519975418280175,101.57578244650914,-33.85560079962562,14.023577108680954,213.88888891521492,150.00000001845183,805.5555556546897,88.8888888998481,302.777777815063,411.1111111617065,261.1111111432547,N
103_180,54840,152177.77779650738,152291.66668541028,152333.33335208206,152380.5555743101,152605.5555743378,10.34455675895222,-73.67983797127917,186.0189755985645,-60.77633906275288,21.985904673303228,0.995963464622984,-36.21527904364917,106.7655837173086,-36.26434400955569,15.123793799136184,225.00000002770685,155.55555557468324,794.4444445422268,88.888888899819,313.88888892752584,427.77777783042984,272.2222222557466,N
103_181,55126,152991.66668549643,153086.1111299525,153127.7777966243,153172.2222410742,153397.2222411019,13.93227381897388,-71.65572431252946,187.6813101338325,-58.35918886271736,23.156077957540145,1.964284037386175,-32.99200957552355,107.97289719875228,-36.23135123981065,14.370486017099404,225.00000002770685,136.11111112785875,788.8888889859954,86.11111112168874,311.1111111493956,405.5555556054751,269.44444447761634,N
103_182,55410,153777.7777967043,153875.00001893847,153916.66668561028,153963.88890783832,154191.66668564413,13.59263823496339,-74.7167581298739,193.38095796940945,-59.78443554190076,23.576072565321752,1.4471608653873758,-34.50124378129691,112.370653067368,-36.81632716932127,14.25987188190016,227.777777805808,138.888888905989,822.222222323413,88.8888888998481,316.6666667056561,413.88888893983676,275.00000003384775,N
103_183,55706,154577.77779680275,154694.4444634838,154738.8889079337,154783.3333523836,155025.00001908,10.792100772287188,-78.3396679138226,195.72441549371072,-63.69971290109866,20.96805924557118,0.2049014566508478,-36.65954760704159,115.53748635274492,-44.19102320693101,13.481400082270858,241.66666669640108,161.11111113094375,830.5555556577747,88.888888899819,330.5555555962201,447.22222227725433,286.1111111463106,N
103_184,56005,155408.33335246053,155525.00001914156,155569.44446359147,155613.88890804138,155858.3333525159,8.564698818722288,-78.71209889985484,191.0631438347303,-64.58704084249976,19.62676878687922,-0.4999509306701668,-40.257414784106274,114.49872130700226,-44.03416130320712,13.916362514140554,244.44444447453134,161.11111113094375,830.5555556577747,88.888888899819,333.33333337435033,450.0000000553846,288.88888892444083,N
103_185,56304,156269.44446367762,156358.3333525775,156400.00001924924,156447.22224147728,156683.33335261745,8.762583632505502,-81.91682624795781,198.72999471730608,-66.68363422219258,22.17021757496757,2.2408668784367265,-37.69584517545834,111.7265853207947,-42.77488140213995,13.861025385628926,236.11111114016967,130.55555557162734,794.4444445422268,88.88888889978989,325.00000003995956,413.88888893983676,283.3333333682094,N
103_186,56590,157069.44446377608,157152.77779711966,157194.44446379147,157238.88890824138,157461.11113049096,11.69987251610176,-76.66642142030729,192.68321499093733,-61.91748281901621,23.80690039314016,1.6303813998797527,-36.37501342543744,114.06475412408916,-42.83373992585582,14.87861000174042,222.2222222495766,125.00000001539593,761.1111112047802,86.11111112171784,308.33333337129443,391.666666714882,266.6666666994861,N
103_187,56864,157816.66668609026,157913.88890832447,157955.55557499625,158000.00001944616,158213.88890836138,12.414737146092506,-72.60765367960228,188.01227570785105,-57.60403005516859,23.99330356868445,0.991583608358504,-31.970816387887304,107.33500815625167,-37.05104656423999,15.540309657959634,213.88888891521492,138.888888905989,786.1111112078652,86.11111112168874,300.00000003690366,397.2222222711134,258.3333333651244,N
103_188,57147,158613.88890841062,158700.00001953234,158741.66668620412,158786.11113065403,159013.88890845983,10.55230796108276,-74.66391632191032,191.57176890544267,-60.43550146835285,23.671563105522367,2.297861975876885,-32.985906594722,108.69925116970587,-39.74479781342616,14.56005517721033,227.777777805808,127.77777779349708,811.1111112109502,86.11111112168874,313.88888892749674,400.0000000492146,272.2222222557175,N
103_189,57439,159394.44446406225,159511.11113074326,159552.77779741507,159600.0000196431,159816.66668633642,10.288139832969469,-70.36037602562045,184.035793706934,-59.00738320089486,22.644826786516408,0.8087853757188186,-34.01502540171288,103.48550885929215,-34.0153192576029,15.183766317199332,216.66666669331607,158.3333333528135,827.7777778796444,88.8888888998481,305.5555555931642,422.2222222741693,263.88888892135583,N
103_190,57737,160225.00001972003,160338.88890862293,160380.5555752947,160425.00001974462,160655.55557532856,10.51674846373449,-79.70951929928732,205.01132819066723,-67.46235419491107,23.39741846775353,-0.4148946190712484,-39.9852104063322,119.74686607111433,-44.244015332657135,13.956817112490151,230.55555558393826,155.55555557468324,877.7777778858144,86.11111112168874,316.666666705627,430.555555608531,275.00000003384775,N
103_191,58053,161122.22224205267,161216.66668650875,161258.33335318053,161302.77779763044,161544.4444643269,8.050557704392933,-79.33364954856255,202.51990458824864,-66.1209069337637,25.00508489671209,2.4443563496679706,-40.148317295310406,119.84573518216432,-46.75465644715105,16.555569734443647,241.6666666964593,136.11111112785875,894.4444445545378,86.11111112168874,327.777777818148,422.22222227422753,286.1111111463688,N
103_192,58375,161972.2222421573,162111.11113106326,162152.77779773506,162200.0000199631,162430.555575547,7.796859467351229,-79.79292071713616,200.42925330425743,-67.81842021497333,25.073639840772312,0.3542307978825542,-38.98026570081933,114.69235637095514,-44.72529939846213,15.703619698785642,230.55555558390915,180.55555557776825,908.3333334451308,88.8888888998481,319.44444448375725,458.33333338971715,277.7777778119489,N
103_193,58702,162883.33335338053,163019.4444645084,163061.1111311802,163105.5555756301,163325.00002010155,7.279592522087297,-74.94683597317666,191.7493090616884,-65.23176663660648,26.26136389488784,1.1492610521137816,-38.00536511700152,113.3452547649679,-45.83670498372694,17.100470429771285,219.44444447144633,177.7777777996671,894.4444445545378,86.11111112171784,305.5555555931642,441.6666667210229,263.88888892135583,N
103_194,59024,163783.3333534913,163913.88890906292,163955.55557573473,164002.77779796274,164202.77779798736,8.61781499904591,-74.35027680529083,197.2631877490742,-64.60017945265453,27.9835118343439,0.630909607755578,-37.14875073764928,114.70456672304957,-40.36272900082253,18.01318895261206,200.00000002462184,172.22222224343568,886.111111220147,88.888888899819,288.88888892444083,419.4444444960682,247.2222222526325,N
103_195,59343,164661.1111313771,164797.22224250497,164841.66668695488,164886.11113140482,165113.88890921063,8.938757035953317,-74.84317800169626,198.9200447059292,-67.0339038184837,25.75998381035398,0.8589175070911617,-40.44631439376144,123.66507575958796,-47.738120075364215,15.233418398930947,227.777777805808,180.55555557776825,880.5555556639447,88.8888888998481,316.6666667056561,452.77777783351485,272.2222222557466,N
103_196,59660,165558.33335370975,165677.7777981689,165722.22224261882,165766.66668706873,165980.55557598395,8.911734818366948,-73.9109817060883,194.2965288405636,-65.95170601750311,24.167395612313843,0.3312364201927816,-38.23810464462603,117.44298895432304,-45.2150460356701,16.351761437356455,213.88888891521492,163.888888909074,880.5555556639156,88.888888899819,302.7777778150339,422.22222227419843,258.3333333651244,N
103_197,59977,166438.8889093737,166561.11113161096,166602.77779828274,166647.22224273268,166861.1111316479,9.13103120058562,-69.76167261311356,186.744415895119,-62.103663957017446,24.47517263435301,1.3764710686850017,-36.908363956996354,108.81501245191254,-39.56050821152614,16.076927600655086,213.88888891521492,163.8888889090449,883.333333442075,86.11111112171784,300.00000003693276,422.22222227419843,258.3333333651535,N
103_198,60295,167313.88890948138,167441.6666872749,167486.1111317248,167533.33335395282,167772.22224287112,8.447050725230861,-84.44660750042209,211.554559265614,-72.01441285726106,24.36053394803336,1.3090552148055952,-46.2410446358467,132.3647068851657,-50.70501176893728,15.419094875234856,238.88888891829993,172.22222224343568,911.111111223232,91.66666667792015,330.5555555962201,458.33333338974626,286.1111111463106,N
103_199,60623,168225.00002070464,168355.55557627627,168397.22224294805,168441.66668739796,168683.3333540944,7.99705971873967,-79.76699687398168,202.43515655552017,-69.19088551831105,23.77748650033619,1.385871871934643,-40.8408393302889,120.38652453461238,-49.6181828611024,14.827696953193112,241.66666669643018,172.22222224340658,886.1111112201761,86.11111112168874,327.7777778181189,458.33333338974626,286.1111111463397,N
103_200,60942,169119.44446525918,169238.8889097183,169283.33335416822,169327.77779861813,169550.0000208677,9.355691290590473,-75.43479854967741,196.8127118743578,-63.79117707981998,26.797349529092404,-0.787200504162182,-41.35772079160076,122.16702362517516,-45.73284982142747,18.19837119384093,222.2222222495766,163.8888889090449,841.6666667702666,88.888888899819,311.1111111493956,430.555555608531,266.6666666994861,N
103_201,61245,169991.66668758873,170080.55557648858,170125.0000209385,170169.4444653884,170383.3333543036,9.482066224223658,-78.74338525955851,201.4273056452211,-68.29732758533423,26.346496518785777,1.8545111494012836,-40.70600390257663,118.38070385779562,-44.95095044720403,18.67957616759241,213.88888891521492,133.3333333497576,813.8888889890513,88.888888899819,302.7777778150339,391.666666714882,258.3333333651244,N
103_202,61538,170811.11113213404,170894.44446547763,170938.88890992754,170986.11113215558,171202.7777988489,11.335612252053652,-76.99817226678535,202.20280754226303,-64.63401178667439,27.026926213418754,2.805963795531503,-39.32059608795008,118.72153369473288,-40.210139616001925,17.132448820551463,216.66666669331607,127.77777779349708,858.3333334389608,91.66666667794925,308.3333333712653,391.6666667148529,263.88888892135583,N
103_203,61847,171633.33335445746,171755.55557669472,171797.2222433665,171841.66668781644,172066.66668784412,9.15125206263022,-76.99938057043431,199.30317468038731,-63.993732619059074,26.829800792675684,0.9716540949771986,-38.62703124812346,117.44469818768174,-42.452177987308666,16.88445819957624,225.00000002767774,163.8888889090449,869.4444445514528,86.11111112171784,311.1111111493956,433.33333338666125,269.44444447761634,N
103_204,62160,172491.66668789642,172622.22224346804,172666.66668791795,172711.1111323679,172941.6666879518,8.293720339405729,-78.58783534949846,199.70651562972495,-67.92663446422736,24.151268730263943,0.3161817157520276,-39.832704866595066,115.01432703505334,-42.74196887002837,16.790894640938287,230.55555558390915,175.00000002153683,869.4444445514528,88.8888888998481,319.44444448375725,450.0000000553846,275.00000003384775,N
103_205,62473,173397.22224356345,173491.6666880195,173536.1111324694,173580.55557691937,173808.33335472515,7.846132386602069,-75.35998360617371,193.20813577341625,-65.1146928102279,25.180529948776176,0.9532643396006214,-36.8371144927452,110.71068901582368,-43.79588477233241,15.901077329384796,227.7777778057789,138.8888889059599,886.1111112201761,88.8888888998772,316.6666667056561,411.1111111617065,272.2222222557466,N
103_206,62792,174294.4444658961,174380.5555770178,174422.22224368958,174469.44446591762,174688.88891038907,9.493881186181026,-75.84156731017208,199.017499342436,-64.46371934200731,24.98275932514212,3.277843678604741,-38.34705821012258,116.60607505738984,-39.12898742201911,15.394873499715947,219.44444447144633,127.77777779349708,872.222222329583,88.888888899819,308.3333333712653,394.44444449298317,266.6666666994861,N
103_207,63106,175130.5555771101,175252.77779934736,175294.44446601917,175338.88891046908,175563.88891049678,9.419838354411905,-74.13061654354507,193.9209117113053,-62.87297529066773,22.727737268952527,1.1023226683699792,-37.77189911372089,114.21390103357176,-40.17829545982566,14.509653433358707,225.00000002770685,163.888888909074,852.7777778827294,86.11111112171784,311.1111111494247,433.33333338669036,269.44444447761634,N
103_208,63413,175991.6666883272,176105.55557723012,176147.2222439019,176194.4444661299,176402.77779948892,10.02034896188155,-68.24950585045531,180.31134369284732,-58.37153153379459,24.474520390362173,1.925822675886544,-35.4262398007813,107.47995418292358,-36.28764022739895,15.783367393520486,208.3333333590126,155.55555557468324,825.0000001015433,88.88888889978989,297.2222222588025,411.1111111617065,255.55555558702326,N
103_209,63710,176841.6666884318,176927.77779955353,176972.22224400344,177016.66668845335,177227.77779959043,11.493668985109986,-74.8849880290177,194.27304707581123,-62.0755402535801,26.385505662595243,2.665654786155367,-38.92430910392345,117.75146736533829,-39.986262505043584,15.701492481403806,211.11111113708466,130.55555557162734,869.4444445514528,88.888888899819,300.00000003690366,386.1111111586215,255.55555558699416,N
103_210,64023,177663.88891075522,177800.00002188308,177841.6666885549,177888.88891078293,178127.7777997012,8.353664990003612,-76.08973616471384,194.9600728196223,-64.95780713337842,21.27892734525164,0.8793611289453105,-38.68161713595884,114.47923331354568,-42.35342782908988,13.290086549133928,238.88888891827082,177.7777777996671,925.0000001138833,88.8888888998481,327.7777778181189,463.88888894597767,286.1111111463106,N
103_211,64356,178586.11113309095,178725.00002199694,178766.66668866877,178813.8889108968,179050.00002203695,7.865270683824418,-76.23586436701076,192.18546911045905,-66.463004147127,21.54599859754733,-0.560515356907788,-37.92461412492965,108.72896371264106,-40.90194003093767,13.07192364207524,236.11111114014057,180.55555557782645,908.3333334451017,88.8888888998772,325.00000004001777,463.8888889460068,283.3333333681803,N
103_212,64683,179494.44446653608,179633.33335544207,179675.00002211388,179722.2222443419,179955.55557770396,9.065130781892416,-81.46031223943463,204.67600824290065,-68.45653939569816,24.21793901040835,0.3307254565937783,-41.42551233974226,120.82817966387196,-45.41650677150405,13.711969331214204,233.33333336206852,180.55555557779735,916.6666667794343,88.888888899819,322.2222222618875,461.1111111678765,280.55555559007917,N
103_213,65013,180413.8889110937,180550.0000222216,180591.6666888933,180638.88891112135,180866.6666889272,8.493344249347363,-76.21943494591255,193.9469623344896,-65.28250328693792,25.724943364053303,1.4163796033476008,-36.6581057533802,110.47011114124052,-41.59502715551998,16.484985471501727,227.7777778058371,177.77777779960888,872.222222329583,88.88888889976079,316.6666667055979,452.77777783348574,275.00000003387686,N
103_214,65327,181294.4444667576,181422.22224455117,181463.8889112229,181511.11113345096,181730.5555779224,8.8062485459919,-74.17954194886184,189.00168597658677,-62.514740433312895,24.93181789496783,0.1392499643939472,-36.316964874294136,105.97636429335232,-37.34365601647023,14.255327560016394,219.44444447144633,169.44444446530542,866.6666667733516,88.88888889978989,308.3333333712362,436.1111111648206,266.6666666995152,N
103_215,65639,182200.00002242465,182288.88891132447,182330.55557799625,182375.00002244615,182580.55557802704,9.530941826075614,-81.27458216584648,207.98309313268985,-66.8820651854258,29.76007854709074,3.80828464597014,-36.23235759097076,112.03917130133216,-38.4327007143082,17.434613574297,205.55555558088236,130.55555557159823,833.3333334358758,86.11111112168874,291.6666667025711,380.5555556023901,250.00000003079185,N
103_216,65939,183008.33335585747,183122.2222447604,183163.88891143212,183211.1111336602,183413.8889114629,10.887852966511918,-77.57350095331995,204.0157576882702,-64.90078518328458,28.826752763621965,0.7414159942499712,-35.27246816975836,109.55646306307192,-36.79253460058384,16.35236687248784,202.777777802723,155.55555557465414,833.3333334359049,88.88888889978989,291.6666667025129,405.555555605446,250.00000003079185,N
103_217,66239,183833.33335595895,183955.55557819625,183997.22224486803,184041.666689318,184283.3333560144,9.44545314187716,-81.26901550299593,206.64770967270096,-68.7481693117243,22.934400926059432,0.4184103995718416,-36.46655091885425,110.6406837370708,-42.242717873542674,13.515991544627894,241.66666669640108,163.888888909074,927.7777778919844,86.11111112174694,327.777777818148,450.0000000554428,286.1111111463688,N
103_218,66573,184744.44446718224,184880.5555783101,184925.00002276,184969.44446720995,185200.00002279383,8.042239230205862,-82.44867885907881,209.8530205304328,-71.49382054178199,24.815696177687045,0.3905649834687386,-36.06976757278091,109.13244801710616,-39.00560373263786,14.380601526587297,230.55555558388005,180.55555557776825,897.222222332668,88.8888888998481,319.44444448372815,455.5555556115869,275.00000003381865,N
103_219,66896,185652.77780062737,185780.55557842087,185822.22224509268,185866.6666895426,186080.5555784578,9.02207961947752,-82.5411086377644,213.70220856861076,-68.62797014939368,26.60225818455593,-0.008489402675928,-37.67115533417678,119.03220336762,-44.42137194155647,16.013322468609477,213.88888891521492,169.44444446530542,872.2222223295539,86.11111112171784,300.00000003693276,427.77777783042984,258.3333333651244,N
103_220,67210,186522.22224517883,186652.77780075045,186694.44446742223,186738.88891187217,186977.77780079044,9.822874258327136,-77.82510719958029,199.9052278038706,-66.20938795941366,22.531949284673715,0.2273023097452437,-37.17480875437873,109.65191048802956,-40.59029403548608,14.76859955041939,238.88888891827082,172.22222224340658,872.2222223296121,86.11111112171784,325.00000003998866,455.555555611616,283.3333333682094,N
103_221,67524,187394.4444675084,187522.2222453019,187566.66668975184,187611.11113420167,187841.6666897857,9.837638267696434,-75.5730264341824,196.52830334543853,-64.10674241705772,25.57315041225344,1.2573697566312254,-35.89143960678162,108.6172360728735,-37.72655645473127,14.811371407083907,230.55555558402557,172.22222224343568,852.7777778826712,88.88888889976079,319.44444448378636,447.22222227728344,275.00000003384775,N
103_222,67831,188280.55557872856,188375.00002318464,188419.44446763452,188463.88891208445,188691.6666898903,9.329006172228498,-81.9023477878637,212.2550133480061,-69.53706000491277,27.77306480312247,1.457404208966224,-39.75746945253552,120.72135395007052,-43.0809908848947,14.899474655836595,227.7777778058371,138.8888889059599,847.2222223265271,88.888888899819,316.6666667056561,411.1111111617356,272.2222222557757,N
103_223,68136,189102.777801052,189225.0000232893,189266.66668996104,189311.11113441092,189533.33335666053,10.505430080620744,-78.70239334017495,203.10415064244435,-65.99595203137807,26.763218527950507,0.7212179087350425,-35.3041433967216,110.44883919480158,-40.13475630812164,16.252699362847537,222.2222222496057,163.8888889090449,850.0000001046283,86.11111112163053,308.3333333712362,430.555555608531,266.6666666994861,N
103_224,68442,189947.2222456004,190072.22224561576,190116.66669006567,190161.1111345156,190391.66669009952,9.670678574892786,-79.93123327088722,203.39295550393985,-68.45912897717187,23.77937044293206,0.4038543902599855,-38.15205104445069,111.48047187002751,-39.87825971278912,15.1163303784928,230.55555558390915,169.44444446527632,916.6666667795216,88.8888888998481,319.44444448375725,444.4444444991241,275.00000003384775,N
103_225,68772,190852.77780126737,190991.66669017336,191033.3333568452,191080.5555790732,191319.44446799147,7.869596196584307,-89.41247824026875,219.281354844166,-72.8692998231226,25.28551312085067,-0.8611092705403435,-42.69885647096406,123.13994753629804,-44.996550604988585,14.411715969627828,238.88888891827082,180.55555557782645,919.4444445575937,88.8888888998481,327.7777778181189,466.6666667241079,286.1111111462815,N
103_226,69103,191772.222245825,191911.11113473092,191952.7778014028,191997.22224585267,192230.55557921476,8.003996519701353,-83.43246828198652,210.8497123729475,-70.69547768790405,27.36381009786269,-0.2905659402162717,-38.644435958838834,117.9765953388552,-46.29875799955159,15.308285342330366,233.33333336209762,180.55555557779735,900.0000001107692,86.11111112174694,319.44444448384456,458.33333338977536,277.777777811978,N
103_227,69427,192672.22224593576,192811.1111348417,192852.77780151356,192900.0000237416,193113.8889126568,7.979655228656064,-81.62873814347671,209.55724955934028,-69.31741625959128,28.95731568413127,0.6502979986764489,-41.47712151686794,124.06733784498245,-44.98780535697984,16.804236278639767,213.88888891521492,180.55555557779735,869.4444445513946,88.8888888999063,302.7777778151212,441.666666721052,261.1111111432547,N
103_228,69740,193558.3333571559,193677.77780161507,193722.22224606495,193766.6666905149,193975.00002387387,10.220110243613371,-74.33754920086082,197.46050044481817,-63.532961165149366,27.0321448423378,-0.4666138142582936,-36.021756677032954,113.5796035005593,-37.90242030589506,16.063509915575672,208.3333333589835,163.8888889090449,866.6666667733516,88.888888899819,297.2222222588025,416.666666717967,252.7777778089221,N
103_229,70052,194413.8889128168,194544.4444683884,194588.8889128383,194633.33335728824,194858.33335731592,9.60400139477927,-78.61528718767775,202.67680319739148,-65.32613755163469,24.772353229688903,1.0900861750182056,-39.36401667122637,120.8687258498263,-40.8418355759553,15.003764037620943,225.00000002767774,175.00000002150773,863.8888889952214,88.8888888998481,313.88888892752584,444.4444444991241,269.44444447761634,N
103_230,70363,195286.11113514635,195411.11113516171,195452.77780183352,195500.0000240616,195719.444468533,10.932086459247184,-75.20330409989343,197.16980014724592,-63.58215221332892,26.14477859213185,0.8886635706676537,-38.03691523264863,117.95077998509528,-39.00771424054698,15.525360714188194,219.44444447141723,166.66666668717517,875.0000001076842,88.8888888998772,308.33333337129443,433.33333338666125,266.6666666994861,N
103_231,70678,196147.22224636344,196286.11113526943,196327.7778019412,196375.00002416925,196600.00002419692,9.375343132416862,-75.87950503192438,201.092582472809,-65.9714541910898,24.73132886894143,-0.1934790243120024,-39.19751198966994,123.46079920600177,-42.75513787721079,15.529135806668377,225.00000002767774,180.55555557776825,922.2222223357239,88.888888899819,313.88888892749674,452.77777783348574,272.2222222557175,N
103_232,71010,197066.66669092103,197205.55557982705,197250.00002427693,197294.44446872687,197541.6666909795,5.784120861391093,-83.23480715069445,207.53871761645533,-70.90413736470175,22.94625582720837,-2.3728924936104026,-42.09485161240649,126.27266391444893,-47.48729212483144,15.260467644381746,247.2222222526325,183.3333333558985,930.5555556701147,88.888888899819,336.1111111524515,475.0000000584696,291.6666667025711,N
103_233,71345,198000.00002436925,198138.88891327524,198180.55557994705,198227.77780217503,198466.66669109336,7.827992660896992,-82.50310051850386,205.57081601416755,-70.50322554376822,24.9600535618272,-0.9777285425203216,-43.87173907532355,127.81798380197836,-47.46960029499586,16.03622669984516,238.88888891832903,180.55555557779735,902.7777778888703,88.88888889978989,327.7777778181189,466.6666667241079,286.1111111463106,N
103_234,71670,198902.77780225812,199041.6666911641,199083.33335783592,199130.555580064,199347.2222467573,8.02257168293644,-81.81418726146737,205.0109259282258,-67.4849892830372,29.223584928966503,0.180602378739195,-43.580858254798656,128.77811593671152,-45.093665902603874,19.053735642492928,216.66666669328697,180.55555557779735,863.8888889952505,88.8888888999063,305.5555555931933,444.4444444991823,263.88888892138493,N
103_235,71981,199769.44446903147,199902.77780238123,199947.22224683117,199991.66669128105,200191.66669130567,9.522081037222057,-76.77134063308146,200.1902392483092,-63.92121768973767,31.467183140958447,0.6602442636379624,-40.92413188011368,124.73326073644184,-41.77921294187223,20.70723914300206,200.00000002462184,177.7777777996962,850.000000104541,88.888888899819,288.88888892444083,422.22222227419843,244.44444447450223,N
103_236,72287,200627.7778024705,200752.77780248583,200797.2222469357,200841.66669138568,201058.333358079,8.72329446819571,-77.73863882225025,201.39061136688235,-64.01763213974039,28.454163619863007,-0.2808067718194255,-40.932483073887056,124.4845459253906,-41.02007812878608,19.394474519944755,216.66666669331607,169.4444444652181,863.8888889952505,88.8888888998481,305.5555555931642,430.5555556085019,261.1111111432838,N
103_237,72598,201497.2222470219,201619.4444692592,201661.11113593096,201705.55558038087,201919.44446929608,9.72454940754076,-71.64376861353591,188.8811460463421,-59.629203539084806,26.758455006813357,0.3935327680231247,-36.45472843073014,116.5154214315112,-39.22018878834921,18.06218650486337,213.88888891521492,163.8888889090449,855.5555556608888,86.11111112165963,300.00000003687455,422.2222222741693,258.3333333651244,N
103_238,72906,202383.3333582421,202475.00002492,202516.66669159185,202563.88891381983,202780.5555805132,9.743478889624306,-82.77774654767686,207.96731242007272,-68.50716945948369,28.58437773658449,2.826372559021184,-43.39562675370709,126.71038473373046,-43.459403364152834,17.41350296963509,216.66666669337428,133.3333333497576,894.4444445545669,88.888888899819,305.5555555931933,397.2222222711134,263.88888892135583,N
103_239,73228,203230.55558056856,203369.44446947452,203411.1111361464,203455.55558059624,203700.0000250708,8.233940734208073,-84.58596494696445,210.50236187685303,-71.29681547696879,24.185857800052265,-0.4744810545957353,-43.18858233739496,130.381788959813,-49.96836429061647,17.38581118497602,244.44444447456044,180.55555557785556,919.4444445575355,86.11111112171784,330.5555555962783,469.4444445022382,288.8888889243826,N
103_240,73559,204155.5555806824,204286.11113625404,204330.55558070395,204375.00002515383,204597.22224740344,8.999102135987615,-79.41230608754041,199.78910984328857,-68.2034681097812,25.864948096995505,0.5166586006186968,-44.58364839996763,126.76737096672908,-46.49326238411325,17.878393152730496,222.2222222496057,175.00000002153683,855.5555556608597,88.88888889978989,311.1111111493956,441.6666667210229,266.6666666994861,N
103_241,73867,205052.77780301505,205144.444469693,205186.1111363648,205233.33335859285,205444.44446972996,10.78738119562982,-71.9411936210477,191.29433594674623,-61.091632342347296,26.81424281109824,1.6308566861981435,-39.06549731347227,117.78833732060376,-38.02668429649275,17.544656601202945,211.11111113711377,133.3333333497576,830.5555556577456,88.8888888998481,300.00000003696186,391.6666667149111,258.3333333651535,N
103_242,74166,205850.0000253354,205972.22224757267,206016.66669202255,206061.1111364725,206280.555580944,9.435203203039274,-78.24102465763774,200.8011531840836,-65.12262276535499,27.261191210347373,1.0010680992710628,-41.73110485160424,126.45105550162292,-43.58338038501328,17.451525411275085,219.44444447150454,166.66666668714606,816.6666667672107,88.888888899819,308.33333337132353,430.5555556085892,263.88888892144314,N
103_243,74460,206666.6666921026,206788.88891433983,206833.33335878977,206877.77780323967,207102.77780326735,9.501929271946157,-78.29106064653733,197.7246875413932,-68.10847480216552,26.46135168755624,0.1578682441824759,-41.273031717136746,120.50652022752126,-44.32592861256672,18.9153721121304,225.00000002767774,166.66666668717517,850.0000001046283,88.8888888998481,313.88888892752584,436.1111111647624,269.44444447758724,N
103_244,74766,207508.3333588729,207638.88891444443,207683.3333588944,207727.7778033443,207958.33335892824,7.880749629214456,-75.1745067293966,191.1696672102664,-65.58036096902678,26.267564091932304,0.7043248188165211,-37.673410991238136,110.9832763577265,-43.26746708159037,18.59305747005368,230.55555558393826,175.00000002150773,847.222222326498,88.8888888998772,319.44444448381546,450.0000000553555,275.00000003384775,N
103_245,75071,208358.33335897743,208488.88891454908,208530.5555812209,208577.7778034489,208805.5555812547,8.280970106028857,-81.8250140659029,204.99949969264145,-69.19549433941752,27.535380174214552,0.5968009346003951,-42.41498957853345,122.97181181082868,-44.286867404789405,17.376832121228173,227.777777805808,172.22222224346478,852.7777778827003,88.888888899819,316.666666705627,447.22222227728344,275.00000003381865,N
103_246,75378,209213.88891463832,209341.6666924318,209383.3333591036,209430.5555813317,209666.66669247183,7.851711344764014,-77.43938666741887,194.7680054905605,-66.17277810326172,23.42465204994877,0.7816769682934765,-40.94257163703124,120.53061507383389,-44.10674990488932,16.110684606089002,236.11111114014057,169.44444446527632,902.7777778888994,88.8888888998772,325.00000004001777,452.77777783351485,283.3333333682385,N
103_247,75703,210102.7778036366,210241.66669254255,210286.1111369925,210330.55558144243,210569.4444703607,5.8212945136661824,-74.17554803839712,187.67995078907,-64.83628245070071,22.60666687568057,-1.913087882288325,-41.3521742776634,115.27684132199133,-41.99275726233313,16.42962116697279,238.88888891827082,183.3333333558985,855.5555556608306,88.8888888998772,327.777777818148,466.6666667241079,283.3333333682094,N
103_248,76011,210961.1111370756,211100.0000259816,211141.66669265332,211188.8889148814,211402.7778037966,7.925403172898398,-78.4077565190691,199.6456024408815,-66.5120156333997,27.924919171281267,0.1524111370722518,-39.92983448332603,117.87700570128293,-41.04965790650933,19.96585029202156,213.88888891521492,180.55555557771004,800.0000000984874,88.88888889978989,302.7777778150048,441.6666667209938,261.1111111432838,N
103_249,76299,211777.7778038428,211900.00002608003,211941.6666927518,211988.88891497985,212191.6666927826,9.618195565849714,-74.73865849384461,194.50952254899795,-63.22064705026846,28.051120951985137,1.0893094474312572,-39.05554162199736,117.7629440174195,-39.494816083557645,19.212334703493312,202.7777778027521,163.8888889090158,819.4444445453119,88.888888899819,291.6666667025711,413.88888893980766,250.00000003079185,N
103_250,76594,212594.44447060995,212716.6666928472,212761.11113729712,212805.55558174703,213011.11113732788,10.228000546197626,-67.20302049888454,181.08640630716724,-58.650907118942925,24.802473344410902,0.6251799134375885,-35.65482465405649,107.65171714839605,-35.87175977641049,17.451490974936583,205.55555558085325,166.66666668717517,825.0000001015142,88.888888899819,294.44444448067225,416.6666667179379,250.00000003076275,N
103_251,76891,213419.4444707115,213541.66669294875,213586.11113739864,213630.55558184857,213850.00002632,9.125971267426388,-66.85796383180228,177.6731110626105,-57.92374110505823,24.605265077289356,0.1075277131469273,-35.47203209117505,104.7086553611667,-35.68441725612931,15.857934623848978,219.44444447141723,166.66666668714606,838.8888889921654,88.888888899819,308.3333333712362,430.5555556085019,263.88888892135583,N
103_252,77193,214261.11113748173,214380.5555819409,214425.0000263908,214469.4444708407,214691.6666930903,10.066288317838175,-77.06445502895143,202.39053545219747,-66.25276887948965,25.17398530345452,-0.3239841209515545,-40.61155394429366,121.08331300921756,-42.12121460769537,16.330329111482353,222.2222222495766,163.888888909074,855.5555556608888,88.888888899819,311.1111111493956,430.5555556085601,266.6666666994861,N
103_253,77501,215113.88891536449,215236.1111376017,215280.5555820517,215325.0000265016,215550.00002652925,9.256218762540252,-78.48782885712484,203.00494048459035,-67.12075034768742,24.53156032798901,-0.0741647734721704,-41.47924750539523,124.05594351375883,-46.15716616054718,16.58158964581572,225.00000002764864,166.66666668720427,866.6666667732643,88.8888888999063,313.88888892755494,436.1111111647624,269.44444447755814,N
103_254,77813,215963.88891546908,216102.77780437507,216147.22224882495,216191.6666932749,216427.77780441503,7.882769905725079,-74.95533219938834,191.8833581610596,-64.31750492995103,21.926267039470936,0.6236661725947275,-38.862988806645255,112.18067512388087,-40.70767082474456,16.23807038420485,236.11111114014057,183.3333333558694,866.6666667733516,88.888888899819,325.00000003995956,463.88888894594857,280.55555559007917,N
103_255,78125,216847.22224891116,216969.4444711484,217013.8889155983,217058.3333600482,217275.0000267416,9.41440505172199,-72.98266513206848,192.54005934561863,-64.9239569117242,25.312633989505724,1.1116107042596828,-35.54422155202362,106.63824232377354,-39.6114613214398,15.984931451617568,216.66666669340339,166.66666668714606,805.5555556547479,88.88888889978989,305.5555555931933,427.77777783042984,261.1111111432838,N
103_256,78415,217672.22224901267,217777.7778045812,217819.44447125305,217866.66669348103,218069.4444712838,12.622722047887503,-73.05860672954185,194.3699810621384,-63.12704084042403,26.89039079418387,1.2511249289044286,-37.1272273492534,112.80609818443791,-37.39243938430604,16.68740514549536,202.7777778027521,147.22222224037978,786.1111112078361,88.8888888998481,291.6666667026002,397.2222222711134,250.00000003073364,N
103_257,78698,218455.5555824424,218563.88891578908,218605.5555824609,218650.0000269108,218869.44447138224,12.574264454304204,-71.44404851647381,190.4959935641909,-61.31042931694664,23.445124701236693,0.6162645467066932,-35.07756324601151,108.89147107647712,-37.64347196304581,14.706233298865593,219.44444447144633,150.00000001848093,797.2222223202989,86.11111112171784,305.5555555931642,413.88888893983676,263.88888892135583,N
103_258,78985,219250.00002698464,219361.11113810944,219402.7778047812,219450.0000270093,219680.5555825932,11.641038648617668,-71.43598187621163,187.2733182815016,-62.59569545097957,22.08425364571879,-0.1929011066696275,-36.99850392058985,111.39699949028856,-38.80094148248585,14.396828077951124,230.55555558390915,152.77777779655298,844.444444548426,88.8888888998481,319.44444448375725,430.5555556085601,277.7777778120071,N
103_259,79289,220075.00002708615,220202.77780487968,220247.2222493296,220291.66669377952,220530.5555826978,10.072884975618289,-81.53621030459911,204.8344937703161,-68.70182902760334,23.268029649138786,-0.0050739501272062,-41.846827662108446,123.20539188668222,-45.04355464743328,14.99667335932639,238.88888891827082,172.22222224346478,847.2222223264689,88.8888888998481,327.7777778181189,455.5555556116451,283.3333333681803,N
103_260,79594,220927.7778049689,221052.7778049843,221094.44447165608,221138.888916106,221369.44447168996,9.569291304839636,-76.00815170910856,197.6886611695956,-64.30787086046966,22.862653375243628,0.3509031252870006,-38.08534857549862,117.31939280012575,-41.50094114601362,14.581201837454635,230.55555558396736,166.66666668717517,838.8888889921654,86.11111112168874,316.6666667056561,441.666666721052,275.00000003387686,N
103_261,79896,221769.4444717392,221888.8889161983,221933.33336064825,221977.77780509816,222213.88891623836,8.999829656994583,-74.78514465196946,191.12870634751212,-64.12136341799484,19.902785558875586,0.3736035980407929,-37.88947036250692,112.81863668659092,-42.10771339033826,13.208750099783192,236.11111114019877,163.8888889090449,861.111111217062,88.8888888998481,325.00000004004687,444.4444444991532,280.55555559010827,N
103_262,80206,222616.66669406567,222750.0000274154,222794.4444718653,222838.88891631525,223080.55558301165,7.733552017268279,-77.60349513749298,195.8445956828899,-66.03071605409262,22.23075215808909,0.7359995218228537,-36.37135892170096,110.41844621155812,-40.98375898390948,13.74734395325068,241.66666669640108,177.777777799638,833.3333334358758,88.8888888998481,330.5555555962492,463.88888894597767,286.1111111463397,N
103_263,80506,223494.4444719515,223583.3333608513,223627.7778053012,223672.22224975112,223891.6666942226,9.854454081984532,-76.63152636134168,196.39718993818508,-63.75776546062531,24.557695422998147,2.331471538353723,-39.56457066075102,117.70824637917268,-40.14053248687544,15.587134774297304,219.44444447147544,133.3333333496994,797.2222223204153,88.888888899819,308.33333337129443,397.2222222711134,263.88888892141404,N
103_264,80793,224294.44447204997,224383.33336094976,224425.0000276216,224472.2222498496,224691.66669432103,11.758850476472755,-72.68922824213655,188.10953766355985,-61.64772072569812,23.733118273887182,1.86946030429339,-35.45334288045517,107.63985149579088,-36.36913988357183,15.928232870813687,219.44444447141723,130.55555557162734,813.8888889890513,88.8888888998481,308.3333333712653,397.2222222710552,266.6666666994279,N
103_265,81086,225069.4444721453,225194.4444721607,225238.88891661065,225283.33336106053,225502.777805532,14.496359385830376,-75.02704350681637,192.80900559859197,-63.41737832682261,24.47850095924775,2.3066664855310286,-40.52919310340413,119.13198352679822,-41.808731938076136,16.354632688101358,219.44444447147544,169.44444446536363,800.0000000984292,88.888888899819,308.33333337129443,433.33333338671946,263.88888892135583,N
103_266,81374,225863.88891668757,225997.2222500373,226038.88891670908,226083.333361159,226313.88891674293,7.877351123676109,-73.9430484324123,189.71449521328512,-61.82797517949152,21.92608930056668,1.1817101829612466,-32.82386475130458,109.13213175128864,-42.00793188194924,13.71833794812049,230.55555558393826,175.00000002150773,872.2222223295539,86.11111112168874,316.666666705627,450.0000000553555,275.00000003384775,N
103_267,81688,226727.7778056828,226866.6666945888,226911.11113903864,226955.55558348857,227188.8889168506,6.626349038504466,-76.28580234413273,185.84119720574876,-63.476725552982174,21.08694292018182,0.0237629742005058,-37.82822146937262,107.09336116405248,-40.02315618665087,13.46759880602397,233.3333333620394,183.3333333558403,852.7777778827585,88.88888889976079,322.2222222618002,461.1111111678183,277.777777811978,N
103_268,81995,227588.88891689983,227722.2222502496,227763.8889169214,227811.11113914943,228033.333361399,7.685451328297131,-74.73814182689154,190.56422057040305,-62.13365665151653,24.10679646229449,0.3411224211332879,-36.80608854168392,112.68346022186977,-38.48311760486256,15.138785382990813,222.2222222495766,175.00000002156594,825.0000001015142,88.8888888998481,311.1111111494247,444.4444444991823,269.44444447761634,N
103_269,82292,228425.00002811383,228544.44447257303,228588.8889170229,228633.33336147285,228863.8889170568,10.825152710319305,-75.56220022802465,194.275507699471,-63.5386989822176,22.68083558376205,-1.2150155838033203,-37.72986726720151,116.78610690563102,-42.41947787176522,14.05543713607195,230.55555558396736,163.888888909074,869.4444445514819,88.888888899819,319.44444448378636,438.88888894298,275.00000003390596,N
103_270,82605,229277.7778059966,229416.66669490255,229458.3333615744,229505.55558380243,229730.5555838301,8.034167680801751,-77.95341329961448,194.13203502467155,-65.01675036586137,23.036844199259885,0.4816896049357193,-39.69677480926738,115.40242778911905,-40.811893606275405,15.610513078386196,225.00000002767774,180.55555557779735,827.7777778796444,88.8888888998772,313.88888892755494,452.77777783351485,272.2222222557175,N
103_271,82903,230111.1111394325,230241.66669500413,230286.11113945403,230330.55558390397,230538.88891726293,8.210043508914293,-72.32545155774626,190.0848778209091,-61.55460358269076,26.988758160167105,0.2663909177476539,-35.60167871657004,107.9215304922506,-37.52212757728145,16.451465139581465,208.3333333589544,175.00000002153683,791.6666667640966,88.8888888998481,297.2222222588025,427.77777783042984,252.777777808893,N
103_272,83188,230941.66669509027,231033.33336176825,231077.77780621813,231122.22225066807,231325.0000284708,8.4874648233522,-76.44706228687116,200.78586366561797,-64.76119755257852,26.008586591230287,1.4972315042992732,-37.85681556959938,115.86353294973732,-39.57029688904084,15.129939490931722,202.777777802723,136.11111112785875,822.2222223234712,88.888888899819,291.666666702542,383.33333338052034,247.2222222526616,N
103_273,83484,231741.66669518876,231855.55558409163,231900.0000285416,231944.44447299148,232158.3333619067,10.248013131428513,-71.47615534700292,189.3065645245017,-60.713646914601526,23.069578738271048,-0.2570438431098877,-37.03465240796866,108.97234293354106,-36.03059275016271,14.418000562654102,213.88888891521492,158.3333333528426,844.4444445483678,88.8888888998481,302.777777815063,416.6666667179379,258.3333333650953,N
103_274,83788,232572.2222508465,232700.00002864003,232744.44447308997,232788.88891753985,233025.00002868,8.612792720620238,-75.33603734391544,190.48647399267796,-61.849810879154376,22.107582063033654,0.8345123044306542,-37.37575013119441,113.23490499702102,-39.7424931526464,13.831023989889578,236.11111114014057,172.22222224346478,875.0000001076551,88.888888899819,325.00000003995956,452.77777783348574,280.55555559002096,N
103_275,84103,233483.33336206977,233575.0000287477,233619.44447319763,233663.88891764756,233891.66669545337,9.3169281568753,-78.16213165685782,198.1354707170865,-63.58742038150109,22.64192159039004,1.8878942927004287,-38.44280399220614,116.87908136194328,-40.25405014391799,15.795433262430327,227.777777805808,136.11111112785875,836.1111112140643,88.8888888998772,316.6666667056852,408.33333338360535,272.2222222557466,N
103_276,84404,234297.2222510588,234413.88891773985,234455.5555844117,234502.77780663967,234722.22225111115,9.49798764603206,-70.00624454297171,183.42604014023576,-58.78459745728544,22.409462715295582,1.13019063245079,-35.65682852374896,107.27263131091551,-35.38352406581262,15.57641132880341,219.44444447147544,158.3333333529008,819.4444445452245,88.888888899819,308.33333337129443,425.0000000523578,266.666666699457,N
103_277,84699,235111.1111400479,235230.55558450703,235275.0000289569,235319.44447340685,235544.44447343456,10.19374958960249,-75.76023508098378,194.57327943665268,-63.87404948088233,24.612144916713305,0.6225103890505173,-37.63941916973987,113.47718564140558,-40.46565046636566,16.14488525278984,225.00000002770685,163.8888889090158,813.8888889890804,88.888888899819,313.88888892752584,433.33333338666125,269.44444447764545,N
103_278,84992,235936.11114014944,236047.22225127424,236088.888917946,236133.33336239596,236344.44447353305,11.049317227875774,-73.11846783030255,193.68654753865297,-61.68893033060129,26.080004126510087,0.9114316954418308,-35.78208437594069,114.59137634323548,-39.27807270343795,16.097491557158364,211.11111113708466,152.77777779655298,783.333333429764,86.11111112171784,297.2222222588025,408.33333338360535,255.55555558705237,N
103_279,85274,236725.0000291354,236830.55558470395,236872.22225137576,236919.4444736038,237116.6666958503,12.20132273928964,-75.08842364280825,193.9362808436364,-61.47743517783556,25.80954888072827,0.9346122690934452,-35.31157778260997,109.6017010115216,-34.33175004776203,16.83171308333707,197.22222224649158,147.22222224035067,758.3333334266499,88.8888888998481,286.1111111463397,391.666666714882,244.44444447453134,N
103_280,85547,237502.7778070089,237588.88891813063,237630.5555848024,237677.77780703045,237894.4444737238,11.489300991997984,-71.86018582869731,185.3912451054612,-60.19163407728581,21.5682322201223,0.4812566050514366,-35.84746410252382,107.40432783868069,-35.3830318255729,12.987090391049032,216.66666669334518,127.77777779349708,800.0000000984583,88.888888899819,305.5555555931642,391.666666714882,263.88888892138493,N
103_281,85835,238280.5555848824,238388.8889182291,238430.55558490087,238477.7778071289,238705.55558493471,10.873604416487396,-72.0016493375468,186.7731909714594,-59.36153298912127,21.070702647948423,0.716743408841101,-35.02442425170727,110.3862608932514,-36.34678688923905,14.118482038466809,227.777777805808,150.00000001848093,838.8888889921363,88.888888899819,316.666666705627,425.0000000523287,275.00000003384775,N
103_282,86137,239105.555584984,239227.7778072212,239269.444473893,239313.8889183429,239555.5555850393,9.28652633363846,-76.55674096180826,194.7455684450833,-64.81778114078048,21.17853628506893,-1.881668653546829,-37.64267002113005,113.04552164761893,-42.20860575812424,13.35684324159073,241.66666669640108,163.8888889090158,841.6666667702666,86.11111112171784,327.7777778181189,450.0000000553264,286.1111111463106,N
103_283,86440,239950.00002953236,240066.66669621336,240111.11114066327,240155.5555851132,240383.333362919,10.183334826339491,-79.85627619763646,202.0946081653796,-64.71099814611163,23.33120537763597,0.075619275489693,-39.00005087461645,116.60264972031308,-40.08646424932896,15.020784412280864,227.7777778057789,161.11111113091465,816.6666667671816,88.8888888998481,316.666666705627,433.33333338663215,272.2222222557175,N
