Index,Peak indices,P Peak Time,Q Peak Time,R Peak Time,S Peak Time,T Peak Time,P_ml2_Ampli,Q_ml2_Ampli,R_ml2_Ampli,S_ml2_Ampli,T_ml2_Ampli,P_v5_Ampli,Q_v5_Ampli,R_v5_Ampli,S_v5_Ampli,T_v5_Ampli,diff_T_S,diff_R_P,diff_R_next_R,diff_RQ_SR,diff_T_Q,diff_T_P,diff_T_R,label
104_1,73,0.0,166.66666668717951,202.77777780273507,202.77777780273507,230.55555558393164,0.0,-59.71646955868397,-5.05036122223858,-5.05036122223858,31.1083657295655,0.0,-9.568931259911317,-52.26642321971792,-52.26642321971792,-5.197886859530818,27.777777781196562,202.77777780273507,675.000000083077,36.11111111555556,63.88888889675212,230.55555558393164,27.777777781196562,/
104_2,316,766.6666667610257,833.3333334358975,877.777777885812,986.1111112324788,1052.7777779073506,2.546023807213652,-29.3085588179148,52.38796184032388,-56.63957345760598,27.286597277682034,1.337212094943283,-19.33389054559532,45.93348160489767,-6.924502330279108,-4.215062544518121,66.66666667487175,111.11111112478636,830.555555657778,152.7777777965813,219.44444447145304,286.1111111463249,175.00000002153854,/
104_3,615,1597.2222224188035,1661.1111113155555,1708.33333354359,1811.111111334017,1872.2222224526497,2.2311305050866874,-30.39019233102699,57.98883685945898,-67.01458320650775,26.69037191544304,1.9022410618977248,-19.612138640349897,49.43248137844508,-15.918917596606498,-0.6309927622165561,61.11111111863261,111.11111112478648,794.4444445422223,150.0000000184616,211.1111111370942,275.00000003384616,163.8888889090597,/
104_4,901,2391.666666961026,2458.333333635898,2502.7777780858123,2605.5555558762394,2666.666666994872,2.9140141049165744,-28.296130559790715,50.71452815872561,-72.25412092819585,31.118426206499382,0.6495644431311418,-17.127123105551817,42.894760188933866,-22.144606948757737,6.2865074933264165,61.11111111863238,111.11111112478648,797.2222223203421,147.22222224034158,208.33333335897396,275.00000003384594,163.88888890905946,/
104_5,1188,3180.555555947009,3255.5555559562395,3300.0000004061544,3394.4444448622226,3455.555555980855,2.9883311535176507,-29.636534938683905,55.795350525008864,-72.50256154210713,29.31539819056649,0.752289631645615,-16.33888623885234,40.28052350570309,-23.476969363330504,4.213504688687354,61.11111111863238,119.44444445914542,802.7777778765808,138.8888889059831,200.00000002461547,275.00000003384594,155.55555557470052,/
104_6,1477,3975.0000004892313,4041.666667164103,4102.777778282735,4144.444444954531,4213.888889407522,6.17549084213865,-68.20326827937615,152.48014374935605,-83.54811300068114,10.238497022948406,0.4257135227410349,-19.867324653191037,18.17486189573381,-27.02657189073159,3.9928827768998096,69.44444445299087,127.7777777935039,755.5555556485469,102.77777779042799,172.22222224341886,238.88888891829038,111.11111112478648,f
104_7,1749,4763.888889475215,4819.444445037608,4858.333333931282,4958.33333394359,5000.000000615385,3.55724926144324,-30.65643648071364,55.66083300228016,-49.212062729761726,9.640878238996184,0.1546176272274044,-17.53942090937768,38.52451542546169,-5.06477811742066,-24.14100053583732,41.6666666717947,94.44444445606678,869.4444445514537,138.88888890598264,180.55555557777734,236.11111114016967,141.6666666841029,f
104_8,2062,5605.555556245471,5686.111111810941,5727.777778482736,5830.555556273163,5894.444445169916,2.856319831951817,-30.13134940428087,53.68971586660759,-74.48917260575692,31.120028038445607,1.98425105005751,-18.59816338561509,49.0139759689156,-15.802291244341784,0.3003705372469838,63.88888889675309,122.22222223726476,830.5555556577774,144.44444446222224,208.33333335897532,288.8888889244454,166.66666668718062,/
104_9,2361,6444.444445237607,6516.666667468719,6558.333334140513,6658.333334152821,6719.444445271453,2.5830855526448664,-29.50030137387453,53.07607668169039,-74.85091803647406,36.79465595001838,1.6983189858591017,-17.451430739921975,45.11477289840131,-20.632640232447987,5.94009879458587,61.111111118631925,113.88888890290582,805.5555556547015,141.66666668410198,202.7777778027339,275.00000003384594,161.11111113094012,/
104_10,2651,7247.222223114189,7319.4444453453,7363.888889795215,7472.222223141881,7536.111112038633,2.157942090459445,-31.211490202860347,59.29440165847572,-64.11057384171467,30.49598731971573,0.8443172426854794,-18.6030117857551,46.7885244061328,-12.260489399615116,-1.4168905632591176,63.88888889675218,116.66666668102607,808.3333334328199,152.77777779658118,216.66666669333335,288.8888889244445,172.2222222434184,/
104_11,2942,8058.333334325129,8127.777778778121,8172.222223228035,8277.777778796582,8338.888889915215,2.026977540580508,-27.633863973161667,52.98458611135763,-64.73828969415666,29.796145951605148,1.3613486075396126,-19.01517738672108,48.77269685860021,-14.955325101664965,-3.3834875063432523,61.111111118632834,113.88888890290582,805.5555556547006,150.00000001846183,211.11111113709467,280.55555559008644,166.66666668718062,/
104_12,3232,8861.11111220171,8933.333334432822,8977.777778882735,9083.333334451285,9144.444445569916,3.203202657888657,-30.728051722870404,58.70831624688143,-66.80085665672053,32.20124530111685,1.5496184940706,-19.533395363664408,49.09056440462039,-15.115026321806038,-3.982339063659325,61.111111118631015,116.66666668102516,805.5555556547024,150.00000001846274,211.11111113709376,283.3333333682058,166.66666668718062,/
104_13,3522,9655.555556743931,9727.777778975043,9783.333334537438,9830.555556765472,9897.222223440343,6.78142569966157,-76.6152565233675,171.72525377177624,-93.09758805922704,12.173911845014173,2.157396452691629,-21.85986834017871,43.65972439797175,-30.64133843919057,5.569824088479328,66.66666667487152,127.77777779350617,761.1111112047856,102.77777779042844,169.44444446529997,241.666666696412,113.88888890290582,f
104_14,3796,10452.777779064274,10505.555556848549,10544.444445742223,10636.111112420173,10744.44444576684,4.959881181988149,-30.45502086481492,54.32943261200925,-21.52697220903692,7.565040960844014,-1.077321493992201,-16.559666140878345,38.114255856779145,0.91089698486918,12.340310239866644,108.33333334666713,91.66666667794925,850.0000001046174,130.5555555716237,238.88888891829083,291.66666670256564,200.00000002461638,f
104_15,4102,11280.555556943931,11352.777779175043,11394.44444584684,11502.777779193506,11572.222223646497,3.131658475147886,-31.575874413264778,50.32744902768671,-60.23193868297663,28.222488245680275,0.2346642744065815,-14.59900661098812,41.497290336534114,-0.4976285462419509,-4.469241125044966,69.44444445299087,113.88888890290946,847.2222223264962,150.00000001846274,219.4444444714536,291.66666670256564,177.77777779965618,/
104_16,4407,12130.555557048549,12197.22222372342,12241.666668173337,12350.000001520002,12411.111112638631,2.2106100175313514,-28.08519805076336,55.356351154626815,-66.39638243699828,29.302712165654462,1.008739515298626,-19.228157010707225,46.53835534600528,-13.961297435640102,-6.006817969965702,61.111111118629196,111.1111111247883,825.000000101536,152.7777777965821,213.88888891521128,280.5555555900828,169.4444444652945,/
104_17,4704,12947.222223815728,13022.222223824958,13066.666668274873,13172.22222384342,13230.555557183932,2.892781258408073,-29.787788038224967,53.430135685876174,-68.57707329185605,26.85668285635112,0.7142130038164547,-18.013215116656486,46.46578133601091,-22.288411674755487,3.159906730297813,58.33333334051167,119.4444444591445,808.3333334328236,150.00000001846274,208.33333335897441,283.33333336820397,163.88888890905946,/
104_18,4995,13763.888890582908,13836.111112814018,13875.000001707696,13972.222223941882,14033.333335060512,1.9048666640565963,-28.49991669201302,53.34421985330657,-72.4028179706435,30.213384972430596,0.7865122886352068,-18.308349236327352,45.41086702103135,-23.82242880282702,5.579213313423953,61.111111118629196,111.1111111247883,794.4444445422196,136.1111111278642,197.2222222464934,269.4444444776036,158.33333335281532,/
104_19,5281,14558.33333512513,14627.777779578122,14669.444446249916,14775.000001818464,14836.111112937097,1.9804169383756505,-29.13151292487008,55.91289232075334,-67.21494355054037,28.80043956237545,0.8203410427763722,-18.73292249851073,46.44592916678856,-20.92231231972233,2.504578401507017,61.111111118632834,111.11111112478648,800.0000000984619,147.22222224034158,208.33333335897441,277.7777778119671,166.66666668718062,/
104_20,5569,15344.444446332993,15416.666668564105,15469.444446348378,15513.888890798293,15791.666668610258,6.2140055261345015,-61.47001800204714,157.5556620046165,-70.74691086869362,9.18726412723404,-0.1298657417911785,-9.064136379233055,33.252368840966994,-15.665863412387935,5.342973694897974,277.7777778119653,125.00000001538501,844.4444445483787,97.22222223418794,375.0000000461532,447.22222227726525,322.22222226188023,f
104_21,5873,16141.666668653335,16213.888890884446,16313.888890896756,16358.333335346668,16425.00000202154,9.304685196888377,-27.378726562427936,110.94726489843498,-71.35008803362928,8.999439857120947,3.011901234859776,-18.2792043327894,-0.1845422270944932,-16.06210174630185,3.8607733943227456,66.66666667487334,172.22222224342113,750.0000000923064,144.44444446222224,211.11111113709558,283.3333333682058,111.11111112478466,f
104_22,6143,16944.444446529917,17019.444446539146,17063.888890989063,17172.22222433573,17244.44444656684,3.100606023729462,-31.77636929173285,57.68424943982265,-55.96658826285101,27.01960088452084,-0.5468750439563271,-18.90124208231757,44.65059118513274,-0.7222784074817121,0.2907777323893685,72.22222223111021,119.44444445914633,855.5555556608524,152.7777777965821,225.0000000276923,300.00000003692185,180.55555557777552,/
104_23,6451,17788.88889107829,17877.77777997812,17919.444446649915,18027.777779996584,18094.444446671456,2.0105102779660555,-27.15262118908752,47.62273458416469,-59.05207922321494,27.08103061925566,1.1063088872928803,-18.92758972145118,42.69457310651883,-14.344067151838765,4.611487842088701,66.66666667487152,130.5555555716237,813.8888889890623,150.00000001846274,216.66666669333426,305.5555555931642,175.00000002154047,/
104_24,6744,18625.00000229231,18694.4444467453,18733.333335638978,18841.666668985643,18911.111113438637,1.4861461472830737,-26.953435842548075,49.892078053920976,-63.14273305202664,25.77826852951453,1.5017307842867949,-19.56132242941006,47.59073525453722,-9.168262863488769,8.553583013153393,69.4444444529945,108.33333334666895,827.777777879659,147.2222222403434,216.6666666933379,286.11111114632877,177.77777779965982,/
104_25,7042,19441.66666905949,19516.66666906872,19561.111113518637,19669.444446865306,19736.111113540173,1.8094487526912395,-30.157229429202392,53.91300432976504,-64.80971632919477,29.663397910960576,1.2808774757219126,-21.00573847756828,51.00752976026508,-11.747740146130484,5.901659503451398,66.66666667486788,119.44444445914633,805.5555556547006,152.77777779658572,219.4444444714536,294.44444448068316,175.00000002153683,/
104_26,7332,20258.33333582667,20325.00000250154,20366.666669173337,20475.00000252,20533.33333586052,5.788540919802659,-28.89099128419279,52.44578835889028,-64.0729332654922,27.08254386695999,1.338928943223734,-20.870241515353765,49.6016760729637,-28.714208031948186,9.453638884731802,58.33333334052077,108.33333334666895,622.2222222988021,150.0000000184591,208.33333335897987,275.0000000338514,166.66666668718244,/
104_27,7556,20908.333335906667,20955.555558134703,20988.88889147214,21097.222224818805,21163.88889149368,8.503760995419206,-4.181459213757325,-0.7812321175605066,-52.70337300399323,177.86833602379394,1.7807117879090022,-1.0416631516883348,0.0850624942347166,-15.43609673869742,49.55838689546295,66.66666667487516,80.55555556547188,175.00000002154047,141.66666668410107,208.33333335897623,255.55555558701235,175.00000002154047,~
104_28,7619,21047.222224812653,21113.888891487524,21163.88889149368,21213.88889149983,21275.000002618464,7.691148586606382,-70.10240601445734,177.86833602379394,-79.63128523813954,10.593930799862193,1.2144713298038117,-10.10016655254234,49.55838689546295,-17.608357303627052,2.330082949194673,61.111111118632834,116.66666668102698,838.8888889921363,100.00000001230728,161.11111113094012,227.77777780581164,111.11111112478466,f
104_29,7921,21800.00000268308,21916.666669364105,22002.777780485816,22044.44444715761,22308.333336078977,8.294755218015363,-33.05114059775165,115.76689009404652,-68.10263305805998,7.0683108749800105,3.6112154852702,-19.221801416405373,0.7400653895598196,-19.263863563823115,6.178986681706975,263.88888892136674,202.77777780273755,730.5555556454674,127.77777779350436,391.6666667148711,508.3333333958981,305.55555559316053,f
104_30,8184,22608.3333361159,22683.33333612513,22733.333336131283,22841.666669477952,22897.222225040343,9.02316739945654,-26.034095048036782,52.20077885920194,-49.93670487042172,20.3886058647333,-2.2844101175174667,-12.034093437235374,33.36538460350599,-10.792530794978802,-34.719834273607056,55.55555556239051,125.00000001538501,866.6666667733334,158.33333335282077,213.88888891521128,288.8888889244445,163.88888890905946,/
104_31,8496,23452.77778066428,23533.333336229745,23600.000002904617,23686.111114026327,23758.33333625744,11.98144256627227,-23.161725457044,46.40127488070915,-42.454345219391385,17.261255679787435,-1.587703764797294,-7.32427849206134,29.72557560362768,-12.896799317976114,11.910727071850804,72.22222223111385,147.22222224033612,747.2222223141907,152.7777777965821,225.00000002769593,305.55555559316053,158.3333333528244,/
104_32,8765,24133.333336303596,24247.222225206497,24347.222225218808,24388.8888918906,24427.77778078428,5.66355645710442,-1.3883646684047328,-1.34248714973108,-29.41498714963133,49.92880472548059,1.8088671741093985,10.405865707105509,0.6754943382370535,-18.67012094881744,37.092032125393,38.888888893678086,213.88888891521128,80.55555556547188,141.6666666841047,180.5555555777828,294.44444448068316,80.55555556547188,~
104_33,8794,24322.22222521573,24388.8888918906,24427.77778078428,24533.33333635282,24588.888891915216,2.75944751948017,-29.41498714963133,49.92880472548059,-63.12056682657158,24.890741178898,1.940288161352778,-18.67012094881744,37.092032125393,-29.82704899328566,5.659466789503544,55.55555556239415,105.55555556854961,816.666666767178,144.44444446222042,200.00000002461456,266.6666666994861,161.11111113093648,/
104_34,9088,25125.00000309231,25202.77778087966,25244.444447551457,25350.000003120003,25413.88889201676,1.0522460888903784,-25.752793154194563,49.14229075215445,-61.45198052120799,29.281825937235844,0.7752745533217917,-16.537018694160096,39.336007290479095,-13.762479187162478,2.3971496472611027,63.888888896755816,119.44444445914633,805.5555556547042,147.2222222403434,211.11111113709921,288.8888889244481,169.44444446530179,/
104_35,9378,25925.000003190773,26008.33333653436,26050.00000320616,26155.555558774704,26219.444447671456,2.6386516427702054,-25.247375857365547,44.78897986119685,-69.2237834880035,29.104628720461005,-0.1804958665848467,-16.48369298756564,41.30652274810811,-11.287034829271636,0.8560675136322589,63.88888889675218,125.00000001538865,833.333333435894,147.2222222403434,211.11111113709558,294.44444448068316,169.4444444652945,/
104_36,9678,26755.55555884855,26827.77778107966,26883.333336642056,26930.555558870088,26994.44444776684,5.822078164047591,-64.89584699384186,141.7254324260131,-75.81544312016976,8.958739824126267,1.8389663300411625,-18.322799415819382,32.14128280121438,-24.694112781599507,4.839821809024515,63.88888889675218,127.77777779350436,758.3333334266645,102.77777779042663,166.6666666871788,238.888888918289,111.11111112478466,f
104_37,9951,27552.77778116889,27605.555558953165,27641.66667006872,27738.888892302908,27841.66667009333,3.5286479270023934,-25.504071429906897,45.2392577412243,-34.67432814295692,10.44824761242998,-0.87794884701467,-16.648609397638246,35.02748937625779,-0.7105649139712796,14.656178104870754,102.77777779042299,88.88888889982991,780.5555556516265,133.33333334974304,236.11111114016603,288.88888892444083,200.00000002461093,f
104_38,10232,28241.666670142567,28380.55555904855,28422.222225720347,28525.000003510773,28586.11111462941,1.9680144155750043,-23.524478408696787,44.27056813555924,-67.39168695291906,28.97681532531856,3.207939892230096,-18.38934634597173,46.65857610716362,-19.75326725574309,-2.353328499103403,61.11111111863647,180.55555557777916,836.111111214017,144.44444446222406,205.55555558086053,344.44444448684226,163.8888889090631,/
104_39,10533,29097.222225803423,29216.666670262566,29258.333336934364,29366.66667028103,29447.222225846497,2.4724471789217395,-24.28658797577938,36.56403871623518,-50.46295607435634,24.597883828381452,11.344464090316212,-18.81985731029016,40.56490836101038,11.00733005890634,5.2232239595352485,80.55555556546824,161.11111113094012,850.0000001046137,150.00000001846274,230.55555558393098,350.00000004307367,188.88888891213355,/
104_40,10839,30000.000003692312,30063.888892589064,30108.333337038977,30216.666670385643,30283.33333706052,2.4473405999335545,-27.760625107685755,46.86004980827434,-56.44997550199061,23.46713703813044,2.7859426568192736,-18.24948728194636,39.59595077004885,-3.609531744685562,0.3315472488700217,66.6666666748788,108.33333334666531,822.2222223234239,152.77777779657845,219.44444447145725,283.3333333682094,175.0000000215441,/
104_41,11135,30808.33333712513,30886.11111491248,30930.5555593624,31036.111114930944,31097.222226049576,3.2187297561307595,-28.930674111007697,52.16313345789271,-62.54375534327268,28.139345817879764,0.726587317380971,-18.250861966995934,41.27817766883407,-13.594939803717034,1.1075486419306984,61.111111118632834,122.22222223727294,830.5555556577747,150.00000001846274,211.11111113709558,288.8888889244481,166.66666668717517,/
104_42,11434,31641.66667056103,31711.11111501402,31761.111115020176,31808.33333724821,31875.00000392308,6.821811216898703,-69.71484955739183,174.2915482854876,-76.07669565624649,8.519680706040258,-4.28407902178829,-14.733730906879227,59.36569739370445,-25.185758778075964,0.2130548094161884,66.66666667487152,119.44444445914633,808.3333334328236,97.22222223418794,163.88888890905946,233.33333336205033,113.888888902904,f
104_43,11725,32383.333337318974,32516.66667066872,32569.444448453,32616.66667068103,32686.11111513402,7.0015779556835085,-68.1303015361909,150.94281805201803,-78.90631686118991,7.686817118908126,-2.918682111765912,-27.94124938979482,54.69943463139307,-34.43969971536099,5.454376888191108,69.44444445299087,186.11111113402512,875.0000001076878,100.00000001230728,169.44444446529815,302.77777781504483,116.6666666810197,f
104_44,12040,33347.2222263265,33441.666670782564,33444.44444856069,33447.22222633881,33497.22222634496,46.628021840566575,-61.47674710395167,-63.14518819753664,-63.376405262370696,25.58433558909503,41.91916946544018,-13.072009217821202,-17.33798086738105,-21.933073774542954,-9.42977334003134,50.000000006148184,97.22222223418794,686.1111111955543,5.555555556245963,55.55555556239415,150.0000000184591,52.777777784271166,f
104_45,12287,34013.888893075215,34086.11111530633,34130.55555975624,34227.77778199043,34286.11111533095,2.089487847617053,-26.88249114916765,47.41094566367455,-66.96377415774015,27.46067525290501,2.706516450000478,-20.701872079420443,47.14248736767032,-19.590449053300684,3.2977630735168235,58.33333334051713,116.66666668102698,800.0000000984655,141.66666668409744,200.00000002461456,272.22222225573205,155.55555557470507,/
104_46,12575,34808.33333761744,34886.11111540479,34930.55555985471,35038.88889320137,35105.555559876244,0.9257012858413788,-26.65425693005758,51.60731356024112,-63.41370305518216,32.4649888816744,0.4747756842931191,-18.52379715881589,43.52276907014493,-9.199493278024732,2.051300163745428,66.66666667487152,122.22222223726567,861.1111112170911,152.7777777965821,219.4444444714536,297.2222222588025,175.00000002153683,/
104_47,12885,35680.55555994701,35747.22222662188,35791.6666710718,35900.00000441846,35961.111115537096,3.234806017253949,-27.76673290895406,49.223545215108345,-64.51344316605872,27.9107294792302,0.9534500165068526,-16.683096976381215,42.29211527076694,-13.877518242482031,-0.9582480906577012,61.111111118632834,111.1111111247883,833.3333334358977,152.7777777965821,213.88888891521492,280.55555559008644,169.44444446529815,/
104_48,13185,36516.66667116103,36580.55556005778,36625.000004507696,36722.22222674189,36783.33333786052,2.3317983923858483,-27.21582713355363,53.30550837090472,-65.20859755251635,28.49937744325801,1.369254777322028,-20.75850353973709,49.04393095139549,-15.35460665888148,0.0917208309984498,61.11111111862556,108.33333334666531,816.6666667671816,141.666666684112,202.77777780273755,266.6666666994861,158.33333335282077,/
104_49,13479,37325.00000459385,37397.22222682496,37441.66667127488,37550.00000462154,37613.88889351829,4.033785500572445,-28.382956106737105,56.13037312010963,-59.7409924127973,29.12752728827774,0.7476797177414631,-18.915408811776945,47.23393351897221,-9.464356227621238,1.628271096059942,63.88888889674854,116.66666668102698,844.444444548375,152.7777777965821,216.66666669333063,288.88888892444083,172.22222224341385,/
104_50,13783,38150.00000469539,38213.88889359214,38286.11111582325,38330.55556027317,38400.00000472616,3.996686036172344,-46.04320282180662,121.75093402000044,-69.97463269025948,9.13561486600134,1.230937301086656,-23.525425771185105,18.259578933890136,-30.27854373326682,4.463232729116042,69.44444445298723,136.11111112786602,766.6666667610261,116.66666668102698,186.1111111340142,250.00000003077002,113.888888902904,f
104_51,14059,38947.22222701573,39011.111115912485,39052.77778258428,39127.77778259351,39244.44444927453,9.032241313523684,-28.30417147920396,50.165474392075645,-7.450983477234153,6.64005995012695,-1.898203715452544,-24.29185717354631,59.42196168251305,-7.450398992531083,12.212411087380096,116.6666666810197,105.55555556854961,777.7777778735035,116.66666668102698,233.3333333620467,297.2222222588025,191.6666666902529,f
104_52,14339,39733.3333382236,39791.6666715641,39830.55556045778,39927.77778269197,39986.11111603248,5.08778858161724,-31.52768447268551,53.75271842566475,-65.76524702391946,26.79592933745508,3.8767920960192033,-17.664761404067903,44.732352927315205,-16.971079728105252,-5.832307211986555,58.33333334050985,97.22222223418066,772.2222223172648,136.1111111278733,194.44444446838315,252.77777780887845,155.5555555746978,/
104_53,14617,40491.66667165026,40563.88889388137,40602.77778277505,40708.3333383436,40769.44444946223,1.8674204024000296,-26.66006721632241,53.72117104998773,-60.69592320816584,27.691808439285467,0.0384140827315865,-17.526157555421275,41.67738749674501,-9.179858333540444,-4.1302058154850565,61.111111118632834,111.1111111247883,869.4444445514528,144.4444444622277,205.55555558086053,277.77777781197074,166.66666668718244,/
104_54,14930,41363.88889397984,41427.77778287658,41472.2222273265,41577.77778289505,41641.6666717918,4.643198446250655,-26.69747338728479,50.71430028914345,-69.35877778112577,28.97487085360096,1.9255280562496355,-22.0867225210074,52.47879257221256,-9.524280460170036,-4.0655040822390776,63.88888889674854,108.33333334665804,841.6666667702593,150.00000001846638,213.88888891521492,277.7777778119562,169.44444446529815,/
104_55,15233,42147.22222740958,42269.44444964684,42313.88889409676,42416.66667188719,42480.555560783934,2.557120763675321,-24.03083266650206,41.43637683031614,-66.09028865040267,29.06392753714956,-0.161247520816718,-18.554724941700997,43.17058007497658,-14.22464063981996,5.856392673061517,63.888888896741264,166.66666668718244,811.1111112109356,147.22222224035067,211.11111113709194,333.3333333743576,166.66666668717517,/
104_56,15525,43005.55556084855,43080.555560857785,43125.000005307695,43225.000005320006,43283.33333866052,2.321203360355724,-28.71219739768424,54.26418987619369,-65.84622363033228,30.584415737171177,0.482737684986593,-19.84400395195045,46.33387112492215,-17.004781892158203,0.0430616630398708,58.33333334051713,119.44444445914269,808.3333334328272,144.44444446222042,202.77777780273755,277.77777781197074,158.33333335282805,/
104_57,15816,43825.00000539385,43883.33333873437,43933.33333874052,43980.55556096856,44050.00000542154,3.722636024285395,-63.54446884905413,164.81185252958468,-71.25778670816791,10.11651950532369,1.0422899930634928,-14.192657557464448,51.88746181333404,-19.63825841517174,3.244003359860877,69.44444445297995,108.33333334667259,838.8888889921291,97.22222223419521,166.66666668717517,225.0000000276923,116.6666666810197,f
104_58,16118,44588.88889437676,44702.777783279664,44772.22222773265,44813.88889440445,45116.66667221949,6.854629444606296,-50.272540183317176,119.58383616264302,-71.71200765465912,6.769052066515295,1.275402629549088,-27.69831776456891,26.54009599950303,-38.51681606954721,5.8638687151156645,302.7777778150412,183.33333335589123,755.5555556485488,111.1111111247883,413.8888889398295,527.7777778427335,344.44444448684226,f
104_59,16390,45361.111116694025,45480.55556115317,45527.7777833812,45627.77778339351,45683.33333895591,3.032854639175722,-16.306709103783017,36.21916661537843,-67.07106902064665,24.173683089694237,-1.3660560280153675,-17.912561124608626,44.56660542365927,-13.766245339341198,-9.853557376236354,55.55555556240142,166.66666668717517,780.5555556516265,147.2222222403434,202.77777780274482,322.2222222618875,155.55555557471234,/
104_60,16671,46202.77778346428,46263.88889458291,46308.333339032826,46408.33333904513,46466.66667238565,3.566367029932444,-27.17299003189987,48.8580434756398,-63.0772994742569,25.75228872384924,1.3807450120638929,-18.560492959827013,41.64197872700629,-18.52480138837277,1.9442207196981909,58.33333334051713,105.55555556854961,822.2222223234203,144.44444446222042,202.77777780273755,263.8888889213704,158.33333335282077,/
104_61,16967,47008.33333911898,47086.11111690633,47130.55556135625,47238.88889470291,47308.3333391559,3.7846300205662207,-27.21863406093783,51.083516076340416,-57.2809945783868,27.22460622528027,1.1879540533471775,-19.689643997621477,46.86204667948137,-5.269922002484801,2.397862274309268,69.44444445298723,122.22222223726567,852.7777778827367,152.7777777965821,222.2222222495693,300.0000000369182,177.77777779965254,/
104_62,17274,47852.77778366736,47936.11111701094,47983.33333923898,48091.66667258565,48158.33333926052,3.566415097720542,-24.97555604608779,45.26289966388855,-56.252946588293845,29.06843102164985,0.0110984259088144,-19.17233539627474,43.13073928045296,-5.379340112793832,-1.7037373681081065,66.66666667487152,130.55555557162006,825.000000101536,155.55555557470507,222.2222222495766,305.5555555931569,175.00000002153683,/
104_63,17571,48694.444450437615,48766.666672668725,48808.33333934052,48916.666672687184,48980.55556158394,1.370292165891516,-25.018306533231208,46.38042208416368,-69.09486648045734,31.88480765635022,0.6269882154376532,-19.540090145259665,49.26375447963845,-11.116486627823011,-0.1574094359648805,63.888888896755816,113.888888902904,827.777777879659,150.0000000184591,213.88888891521492,286.11111114632513,172.22222224342113,/
104_64,17869,49480.55556164547,49594.444450548384,49636.11111722018,49736.11111723248,49800.00000612924,2.166067605611312,-24.124352969505367,49.960408876633686,-74.2011670604385,32.7632986586529,-0.5193655619883093,-21.27613647044386,54.60702331882993,-12.218062034134611,0.7820135296753086,63.888888896755816,155.55555557470507,838.8888889921436,141.66666668409744,205.55555558085325,319.4444444837645,163.88888890905946,/
104_65,18171,50338.88889508445,50405.55556175932,50475.00000621232,50516.66667288411,50583.33333955898,3.399257983649856,-47.06759463881036,122.22895247659096,-70.8327961884111,6.613166329016,1.0234439874910954,-24.017520287823757,11.919670604820858,-28.91964618693708,5.412378204874504,66.66666667487152,136.1111111278733,758.3333334266572,111.1111111247883,177.77777779965982,244.44444447453134,108.33333334665804,f
104_66,18444,51152.77778407351,51197.222228523424,51233.33333963898,51316.66667298257,51422.22222855112,4.919084724834012,-23.737368644791665,43.61477218529755,-36.05588701878944,6.420285615198978,-2.383614499248225,-16.861465277171405,37.305028373824086,-2.1046893353597387,13.615235513116572,105.55555556855688,80.55555556547188,777.7777778735035,119.44444445914269,225.00000002769957,269.44444447761634,188.88888891214447,f
104_67,18724,51900.0000063877,51969.44445084069,52011.11111751248,52105.55556196856,52166.66667308719,2.5099352350312376,-27.81858461909556,48.916637820471706,-70.07227459416492,29.104635582902823,0.8208669280151428,-15.569337359563685,44.61194382201711,-13.629158494103727,-2.0078859789967893,61.11111111862556,111.11111112478102,788.8888889859882,136.1111111278733,197.22222224649886,266.6666666994861,155.55555557470507,/
104_68,19008,52686.11111759556,52755.55556204856,52800.00000649847,52905.55556206701,52969.44445096377,2.9342036514362824,-24.20100452876413,45.71796035211095,-60.37283865521537,28.945118309130613,1.6906174983886646,-19.981341319997277,45.97590832274237,-7.0525627437538425,-3.3839120898987463,63.888888896755816,113.88888890291128,861.1111112170911,150.00000001845183,213.88888891520764,283.3333333682094,169.44444446529815,/
104_69,19318,53519.44445103146,53619.44445104377,53661.11111771556,53763.88889550599,53825.00000662462,1.3037721171660483,-22.89270995609668,46.275080754134905,-66.35776311489786,25.895208396468423,0.8738740787361948,-20.002581753978017,48.96963777775818,-16.477543889980208,0.5664334323480587,61.111111118632834,141.6666666841047,827.777777879659,144.44444446222042,205.55555558085325,305.5555555931642,163.88888890905946,/
104_70,19616,54369.44445113608,54447.22222892343,54488.88889559522,54588.88889560752,54650.00000672616,3.095800736196864,-23.25929905767956,44.80243352839205,-68.74746100792356,29.4465391041378,1.1651921630309292,-20.29750497623841,49.444638414294495,-19.3833928284122,1.4553805481105693,61.11111111864011,119.44444445914269,816.6666667671816,141.66666668409016,202.77777780273027,280.55555559007917,161.11111113093648,/
104_71,19910,55186.11111790325,55261.111117912485,55305.5555623624,55411.11111793095,55472.22222904958,2.4206639723437084,-22.43707241296108,45.80610852940916,-60.8622024228613,28.35010799812088,0.5621038654999705,-19.489309210493666,48.07106839790068,-13.062688925368851,-3.074334890435617,61.11111111862556,119.44444445914996,775.0000000953805,150.00000001846638,211.11111113709194,286.11111114632513,166.66666668717517,/
104_72,20189,55955.5555624424,56027.77778467351,56080.55556245778,56127.777784685815,56197.22222913881,6.344788615656614,-51.62001415686144,131.78513046316274,-66.0404467335724,9.542372055537117,-0.0556758222138784,-5.544956879450117,27.46280603520669,-17.428897814667202,2.8195810621972788,69.4444444529945,125.00000001538137,841.6666667702593,100.00000001230364,169.44444446529815,241.66666669640836,116.66666668102698,f
104_73,20492,56800.00000699078,56869.44445144376,56922.22222922804,56969.44445145608,57261.11111815864,5.20645002258428,-51.11220198713774,128.89221037096124,-59.49718880222608,6.957590066716436,0.5629451734374945,-17.275246203435,63.06135800133335,-29.526368162667715,4.92576405502828,291.66666670255654,122.22222223726567,866.6666667733298,100.00000001232547,391.666666714882,461.11111116786196,338.8888889305963,f
104_74,20804,57605.55556264547,57677.77778487659,57788.88889600137,57830.555562673166,57891.6666737918,9.078565757934964,-18.943992884172022,47.5416633797913,-37.56385057442852,5.508197912872022,2.6713627098991943,-19.905197899531363,9.865349304577794,-30.71491296677856,7.532648366785094,61.111111118632834,183.3333333558985,700.0000000861546,152.7777777965748,213.88888891520764,286.11111114632513,102.77777779042663,f
104_75,21056,58366.66667385026,58444.44445163761,58488.88889608753,58594.44445165608,58658.333340552825,3.517195987987054,-23.02590477451972,45.45888833893823,-62.74377418360622,27.538494411893485,0.4953217150150772,-19.76656404651685,50.98153312449938,-12.26910037448972,-0.4397815817774493,63.888888896741264,122.22222223726567,850.0000001046137,150.00000001847366,213.88888891521492,291.6666667025638,169.44444446529815,/
104_76,21362,59169.44445172684,59291.66667396411,59338.88889619214,59447.22222953881,59513.88889621368,2.440767037860621,-23.76102525153601,44.59972703216817,-49.136409457593736,26.308176750248915,0.7282940691683587,-19.031153655305623,44.417556812961,-9.944536902968164,-0.0313223494826591,66.66666667486425,169.44444446529815,850.000000104621,155.55555557470507,222.2222222495693,344.444444486835,175.00000002153683,/
104_77,21668,60080.55556295009,60141.66667406872,60188.88889629676,60294.4444518653,60355.55556298394,2.9173204296298776,-25.59498467431502,48.78931932485777,-55.799437738946544,23.837833568112984,1.9699515294402208,-17.875584541040638,44.40626761164461,-18.23885478837136,0.1505506406945191,61.111111118632834,108.33333334667259,808.3333334328199,152.7777777965821,213.88888891521492,275.00000003384775,166.66666668717517,/
104_78,21959,60886.11111860479,60952.777785279664,60997.22222972958,61094.44445196377,61158.33334086052,4.420243312430624,-29.04153624944481,56.77771419781519,-62.448783198959326,29.55834181298982,0.1003293621233761,-18.865397807230927,47.80895925149931,-24.439326701734032,17.42409516351564,63.88888889674854,111.1111111247883,416.6666667179452,141.6666666841047,205.55555558085325,272.2222222557248,161.11111113093648,/
104_79,22109,61325.0000075477,61363.88889644137,61413.888896447526,61511.111118681714,61802.77778538428,6.870145214489042,-1.085701962736424,5.73212057307074,-4.548114281992673,49.38817652738464,-0.4788565563959239,2.43827671665794,4.89300754526925,-12.123951478479844,30.8160120163307,291.6666667025638,88.88888889982627,388.88888893675175,147.2222222403434,438.8888889429072,477.777777836578,388.88888893675175,~
104_80,22249,61675.00000759077,61752.77778537813,61802.77778538428,61900.00000761847,61972.222229849576,4.943632435570323,-21.13584917555857,49.38817652738464,-59.12385511234776,35.57799234066861,23.359088587153284,-9.659939621617488,30.8160120163307,-28.16412749656134,22.6794201358793,72.22222223110293,127.77777779351163,391.66666671487474,147.2222222403434,219.44444447144633,297.2222222588098,169.44444446529815,/
104_81,22390,61972.222229849576,62108.33334097744,62194.44445209915,62247.222229883424,62588.88889659214,35.57799234066861,-19.53509552967312,6.996382839754288,-16.894481416017538,124.73271167297924,22.6794201358793,-4.054258807538485,16.16079764536929,-6.424237345712679,78.96846215231179,341.6666667087193,222.2222222495766,394.44444449299044,138.88888890598173,480.555555614701,616.666666742567,394.44444449299044,+
104_82,22532,62427.77778546121,62538.88889658599,62588.88889659214,62638.8888965983,62950.0000077477,14.376091248315085,-66.05268693102317,124.73271167297924,-65.75282544448856,22.674372874776846,4.72737121199834,-24.14103827944628,78.96846215231179,-45.84965915217281,-4.801816793644928,311.11111114940286,161.11111113093648,822.2222223234203,100.00000001231092,411.1111111617138,522.2222222864948,361.1111111555583,Q
104_83,22828,63275.0000077877,63355.55556335317,63411.11111891556,63461.11111892172,63744.44445228992,17.106058651794232,-75.53129645984822,138.12194881815736,-74.45503696890843,15.3417422030388,5.0167126012122125,-31.9003298686255,86.41356481728668,-48.57707653148047,17.22771060821093,283.33333336820215,136.11111112786602,758.3333334266645,105.55555556854961,388.88888893675175,469.44444450222363,333.3333333743576,Q
104_84,23101,64072.22223010804,64133.33334122667,64169.44445234223,64250.0000079077,64286.111119023255,9.704266512960658,-22.255293072123667,52.43376354583162,-32.55105023624238,21.235221099418293,-1.989480512828848,-9.999443338208811,34.869904097731634,4.574065706217668,-2.9157533980262618,36.111111115555104,97.22222223418794,411.1111111617138,116.66666668102698,152.7777777965821,213.88888891521492,116.66666668102698,Q
104_85,23249,64380.55556347932,64469.44445237915,64580.55556350394,64636.11111906633,64991.66667466565,8.965482576803947,-7.716315010628234,-4.037805968114682,-5.961051812823007,59.02780016223977,33.47760771516156,-14.159460740705097,24.29845220102804,-2.58155690888345,61.025457239196975,355.55555559931963,200.00000002462184,413.8888889398295,166.66666668717517,522.2222222864948,611.1111111863283,411.1111111617065,+
104_86,23398,64883.33334131898,64952.77778577197,64994.44445244377,65094.44445245608,65166.66667468719,8.638526621270064,-31.774791075173752,56.79330878309773,-59.24741502566235,27.769944423020807,9.074233900531569,-34.730392061884544,61.61249104882598,3.2230229492229108,-19.45181070803874,72.22222223111021,111.1111111247883,841.666666770252,141.666666684112,213.8888889152222,283.3333333682094,172.22222224342113,/
104_87,23701,65702.77778586428,65788.88889698598,65836.11111921402,65941.66667478257,66000.00000812308,3.6462160007524806,-28.98972973996828,57.841408199749736,-45.5127152428412,30.47284751256801,9.868518562267866,-26.283038901667883,58.25240661591484,-17.45059065375574,-24.790722167954662,58.33333334051713,133.33333334974304,525.0000000646105,152.7777777965821,211.11111113709921,297.2222222588025,163.88888890905946,/
104_88,23890,66236.11111926325,66358.33334150052,66361.11111927863,66361.11111927863,66655.55556375932,8.569631318048463,-2.351894853375973,-2.318657669238595,-2.318657669238595,53.69373995871516,7.295888382470851,-9.894178804640978,-9.451552342237049,-9.451552342237049,43.07771331069249,294.4444444806868,125.00000001538137,300.00000003693276,2.7777777781157056,297.2222222588025,419.4444444960682,294.4444444806868,~
104_89,23998,66533.33334152205,66616.66667486564,66661.11111931557,66769.44445266222,66836.1111193371,2.6685454574936687,-28.262335347925596,48.12555248358795,-60.47231366327024,31.062908164629544,0.7757792949538541,-18.95568158335101,47.98728662557915,-11.24589701792524,-1.2988758765114183,66.6666666748788,127.77777779351163,838.8888889921363,152.7777777965821,219.44444447146088,302.77777781504847,175.00000002153683,/
104_90,24300,67383.33334162667,67458.33334163591,67500.0000083077,67608.33334165436,67666.66667499488,2.60216826704278,-25.60473024725714,49.79958151130204,-62.15410801708272,27.64933339165492,1.461866142767902,-18.49267164125102,43.93910787241419,-22.58991071161247,1.005529812016965,58.33333334051713,116.66666668103426,805.5555556547042,150.00000001845183,208.33333335896896,283.3333333682094,166.66666668717517,/
104_91,24590,68194.44445283762,68261.11111951248,68305.5555639624,68402.77778619659,68461.1111195371,2.918856584578032,-27.88232871661175,58.18043729007212,-63.84316343707713,29.613889919797405,1.966938591007649,-19.23124913192473,45.36067360409881,-24.691496135038253,3.152762522085377,58.33333334051713,111.1111111247883,797.2222223203426,141.6666666841047,200.00000002462184,266.6666666994861,155.5555555746978,/
104_92,24877,68983.3333418236,69052.7777862766,69102.77778628275,69147.22223073266,69427.77778632274,6.1414239702780975,-55.60695308276224,139.50057453864198,-59.00816012588317,7.904044150047597,0.4917461009249875,-15.092284820227654,59.7921957687809,-28.28285787557992,5.043004752922,280.55555559007917,119.44444445914996,836.1111112140061,94.44444445606496,375.0000000461441,444.4444444991386,325.00000003998866,f
104_93,25178,69761.1111196971,69844.44445304069,69938.88889749676,69980.55556416855,70047.22223084343,10.634961028547586,-26.00246932834777,92.73879804575404,-59.058449450955095,6.730783854050406,2.880516227004817,-22.149795495833803,9.373537947718102,-28.964100668198437,4.4411066367823775,66.6666666748788,177.77777779965254,727.777777867348,136.11111112785875,202.77777780273755,286.11111114632513,108.33333334667259,f
104_94,25440,70547.22223090497,70619.44445313608,70666.6666753641,70772.22223093266,70836.11111982941,4.443907086641091,-32.956237404466414,60.60244073985891,-56.97732063920768,27.004279055333733,-0.1146277443177091,-17.200413395493094,46.41805711764007,-5.991235448476978,-5.468335659110923,63.88888889674854,119.44444445913541,852.777777882744,152.7777777965821,216.66666669333063,288.88888892444083,169.44444446530542,/
104_95,25747,71411.11111990018,71477.77778657505,71519.44445324685,71622.22223103727,71686.11111993402,2.961221431326164,-26.56522700076131,55.42766074506443,-57.01209637327692,26.03476006607829,1.455619457162813,-22.58126795504849,49.33493294419342,-13.029546041952509,1.5972360359508868,63.88888889674854,108.33333334667259,836.1111112140206,144.44444446222042,208.33333335896896,275.00000003384775,166.66666668717517,/
104_96,26048,72238.88889777983,72311.11112001094,72355.55556446087,72450.00000891693,72513.88889781368,1.853376022546661,-28.81853179156984,64.00128774349236,-64.65458167204083,26.61553850684768,1.817919801516036,-21.68019097659758,54.88187898539925,-18.656294252514968,4.434010432240065,63.88888889674854,116.66666668103426,813.8888889890513,138.888888905989,202.77777780273755,275.00000003384775,158.3333333528135,/
104_97,26341,73052.7777867689,73125.00000900001,73169.44445344992,73277.77778679659,73341.66667569334,3.062047274683874,-31.25170120201709,58.35172237606541,-61.02779932718163,26.79461610953209,1.0463313119571145,-20.259180968731247,48.279437936447806,-11.341235563191432,-2.008986193789124,63.88888889674854,116.6666666810197,813.8888889890659,152.7777777965821,216.66666669333063,288.88888892444083,172.22222224342113,/
104_98,26634,73863.88889797984,73941.66667576719,73983.33334243899,74088.88889800753,74150.00000912616,1.2668330182359195,-27.87820431167479,54.99053347532792,-59.13597015170156,28.849291708515565,1.1141454471176913,-21.06058143275043,52.90643107909671,-19.19041544448163,1.6025150687217375,61.111111118632834,119.44444445914996,811.1111112109356,147.22222224033612,208.33333335896896,286.11111114632513,166.66666668717517,/
104_99,26926,74691.6666758595,74750.00000920001,74794.44445364992,74897.22223144035,74961.1111203371,1.951239559083905,-27.372651534499337,58.82405676280636,-56.636114705922665,28.302442859806515,2.2909151149145157,-20.99137168481251,50.31505840876872,-19.43597708891868,5.888800572424144,63.88888889674854,102.77777779042663,716.6666667548707,147.22222224033612,211.11111113708466,269.4444444776018,166.66666668717517,/
104_100,27184,75388.88889816753,75458.33334262052,75511.11112040479,75555.55556485472,75625.0000093077,5.85417669150173,-51.77136873783616,139.41953479059265,-74.85219322930013,10.197306327070928,-0.1298387316987269,-8.825499728498038,37.12762362808652,-33.76331984924752,6.585495587882388,69.44444445297995,122.22222223726567,847.222222326498,97.22222223419521,166.66666668717517,236.11111114016967,113.888888902904,N
104_101,27489,76183.33334270975,76288.8888982783,76358.33334273129,76400.00000940308,76469.44445385608,8.169904561223422,-55.392049341724,118.03719860172066,-72.97807667468595,8.90461571527934,2.2157822773604203,-31.94616285886196,28.4679818381577,-43.84917109918274,13.208024095987524,69.4444444529945,175.00000002153683,802.7777778765885,111.1111111247883,180.5555555777828,286.11111114632513,111.1111111247883,f
104_102,27778,77069.44445392993,77122.2222317142,77161.11112060788,77261.11112062017,77569.44445399145,4.098166346561041,-27.90845484713823,53.3688609100328,-39.97687482197799,12.273010929135026,-1.4347304472405615,-19.6498161862654,46.51016268682599,-7.054676259832353,7.17169123589866,308.3333333712799,91.66666667794925,850.0000001046137,138.88888890597445,447.22222227725433,500.0000000615255,408.33333338357625,f
104_103,28084,77897.22223180959,77969.4444540407,78011.11112071249,78119.44445405915,78186.11112073403,4.335490551848173,-29.567909673038923,61.987672542626754,-63.15614017776159,32.954153756717595,7.555233462707386,-31.203176069457573,62.07046889143718,-14.586136000136367,4.46902869031382,66.6666666748788,113.888888902904,822.222222323413,150.00000001845183,216.66666669333063,288.88888892444083,175.00000002153683,/
104_104,28380,78725.00000968923,78788.888898586,78833.3333430359,78930.5555652701,78988.8888986106,4.252850338059385,-30.74127067935264,60.046342040330885,-61.5024716612858,28.59018985910405,2.608613180603655,-20.989863063630192,47.92496905268312,-16.750872860349055,-5.622266464055587,58.33333334050258,108.33333334667259,819.4444445452973,141.6666666841047,200.0000000246073,263.8888889213704,155.5555555746978,/
104_105,28675,79538.8888986783,79608.3333431313,79652.7777875812,79750.0000098154,79808.3333431559,3.683198633122378,-28.889806476943143,64.80082667319944,-61.56060611442109,25.0642245955895,1.1172353895730098,-18.790299194757537,48.67834014055391,-30.184128763454755,8.303753057710022,58.33333334050258,113.888888902904,800.0000000984583,141.6666666841047,200.0000000246073,269.4444444776018,155.5555555746978,/
104_106,28963,80344.444454333,80408.33334322975,80452.77778767966,80552.77778769197,80613.8888988106,2.1863225338247174,-27.45783206495973,59.414523920362136,-59.293578233459385,29.21454734031968,1.1520912253959077,-19.913355628700018,49.2697354836095,-19.034030147046053,3.281937240086167,61.111111118632834,108.33333334665804,797.2222223203426,144.44444446222042,205.55555558085325,269.4444444776018,161.11111113094375,/
104_107,29250,81130.55556554087,81205.5555655501,81250.00001,81344.44445445608,81405.55556557472,2.70771583775638,-28.69010339747498,68.61696030530419,-61.70324242204626,27.799294421025035,1.8233750041943115,-20.10577821790789,52.93201147498807,-21.859392933385774,3.4447473885901427,61.111111118632834,119.44444445913541,747.2222223141871,138.888888905989,200.00000002462184,275.00000003384775,155.55555557471234,/
104_108,29519,81872.22223229881,81947.22223230805,81997.22223231419,82044.44445454223,82116.66667677334,6.263618869423828,-59.477171198888286,134.7655532295846,-62.6378564753948,7.424613336199102,1.1201853125656949,-9.565157808406443,22.20154488524626,-13.223018984436406,1.5302705543999122,72.22222223111021,125.00000001538137,813.8888889890659,97.22222223418066,169.44444446529087,244.44444447453134,119.44444445914996,f
104_109,29812,82619.444454613,82758.33334351899,82811.11112130326,82858.3333435313,82925.00001020616,4.783606944319353,-61.220371576617765,143.73793771525808,-69.63404780197406,7.168591904164824,1.2608479297595996,-9.785091978180674,29.060077747218703,-19.43981171915144,3.1694095568533256,66.66666667486425,191.66666669026017,922.2222223357239,100.00000001231092,166.66666668717517,305.5555555931642,113.888888902904,f
104_110,30144,83547.22223250497,83647.22223251728,83733.33334363898,83775.00001031077,83844.44445476377,7.171747420866192,-36.76008104654799,111.6242446521494,-68.33736231664342,8.53281864700001,2.7096774982751843,-27.812812118347136,7.814645168202137,-31.167787189041974,4.747280181642289,69.4444444529945,186.1111111340142,769.4444445391418,127.77777779349708,197.22222224649158,297.2222222588025,111.1111111247883,f
104_111,30421,84325.00001037847,84463.88889928446,84502.77778817812,84600.00001041232,84650.00001041847,2.104580484720943,-26.786873369578053,59.860869582856445,-53.65432094414625,17.434919338825843,-2.02429256751217,-20.192911117607142,50.57200724472739,-9.14627719217006,-31.413662656160533,50.00000000615546,177.77777779965254,827.777777879659,136.11111112785875,186.1111111340142,325.0000000400032,147.22222224035067,f
104_112,30719,85222.22223271112,85286.11112160787,85330.55556605778,85438.88889940445,85502.7777883012,3.753649565435344,-33.702559240479054,65.69482538968705,-55.82954004980908,25.558837455201004,0.5724031084145497,-16.575319698843856,47.01064201128743,-12.876083028023658,-1.0371616645484676,63.88888889674854,108.33333334665804,813.8888889890659,152.7777777965821,216.66666669333063,280.55555559007917,172.22222224342113,/
104_113,31012,86038.8888994783,86100.00001059694,86144.44445504685,86247.22223283727,86305.55556617779,2.207022827811538,-27.589599204733418,62.41529064038398,-52.42209831278447,25.21006213758846,1.2123310251353463,-21.472513118722063,51.69046661103019,-21.4826621251742,-1.070897484189544,58.33333334051713,105.55555556854233,805.5555556547042,147.22222224033612,205.55555558085325,266.6666666994861,161.11111113094375,/
104_114,31302,86827.77778846429,86905.55556625163,86950.00001070155,87047.22223293573,87105.55556627625,2.472614053059006,-27.907256104245725,65.71574693868614,-64.2761511809384,31.47254430343888,1.5955413274075094,-20.35918310079781,50.606045501729305,-30.70224772931108,10.41641930112861,58.33333334051713,122.22222223726567,772.2222223172575,141.6666666841047,200.00000002462184,277.77777781196346,155.5555555746978,/
104_115,31580,87608.3333441159,87677.7777885689,87722.22223301881,87813.88889969676,87872.22223303728,3.73591002427557,-28.25728276119299,64.57136596147899,-61.749497513817744,28.886106151252157,1.5653429200463846,-18.98761846331652,47.03819768651911,-23.756277333911395,1.4482490969625887,58.33333334051713,113.888888902904,780.5555556516338,136.11111112785875,194.44444446837588,263.8888889213704,150.00000001846638,/
104_116,31861,88388.88889976752,88458.33334422052,88502.77778867044,88605.55556646087,88669.44445535762,2.971213751033924,-28.984139958359112,66.0952195051471,-59.36136788785611,30.65726597975084,1.2383431610360534,-20.559016409174085,50.69097119341173,-17.321897752498725,5.724306419256388,63.88888889674854,113.88888890291855,852.7777778827294,147.22222224035067,211.11111113709921,280.5555555900937,166.66666668717517,/
104_117,32168,89236.11112209402,89308.33334432513,89355.55556655317,89452.77778878737,89513.888899906,3.471469286171528,-29.31739697421041,64.98913561964403,-59.01725946792401,30.0549477277016,1.7579035737963966,-19.06058487744102,48.90658873649434,-16.546417267271064,1.5425684698791249,61.111111118632834,119.44444445914996,383.33333338052034,144.44444446223497,205.5555555808678,277.777777811978,158.33333335282805,/
104_118,32306,89513.888899906,89636.11112214325,89738.88889993369,89847.22223328035,90125.00001109231,30.0549477277016,-0.9547829731094016,3.470137930150446,-5.8334675219834295,140.3537419692925,1.5425684698791249,-3.126587913310268,9.298152754105564,-4.44949363435931,35.06663650766403,277.77777781196346,225.0000000276923,386.1111111586215,211.11111113709921,488.8888889490627,611.1111111863138,386.1111111586215,+
104_119,32445,90002.77778885505,90072.22223330804,90125.00001109231,90169.44445554224,90241.66667777336,5.957698252879845,-51.08075418735461,140.3537419692925,-70.67522874000072,8.89131699603006,0.2762451280849027,-6.580243626504423,35.06663650766403,-29.77886929661841,3.492431919007962,72.22222223112476,122.22222223726567,802.7777778765885,97.22222223419521,169.44444446531998,238.88888891831448,116.66666668104881,N
104_120,32734,90741.66667783487,90875.00001118465,90927.7777889689,90972.2222334188,91041.6666778718,6.868737964626861,-52.02035651119994,140.13804651077157,-73.05837294715097,8.500412862225264,0.4336549101308018,-8.062263336379,38.99591597779942,-35.29620591105517,5.448921825179909,69.44444445300905,186.11111113402876,902.7777778888994,97.22222223415156,166.6666666871606,300.00000003693276,113.888888902904,N
104_121,33059,91655.55556683624,91747.2222335142,91830.5555668578,91875.0000113077,91944.44445576068,10.172199755244788,-35.36202851684876,113.4939114152175,-67.90388818734499,8.061781982631304,2.472719177950448,-24.358776778592304,13.186521878854252,-26.52485125991865,4.189696822046858,69.44444445297995,175.00000002156594,758.3333334266354,127.77777779349708,197.22222224647703,288.88888892444083,113.8888889028749,f
104_122,33332,92494.4444558284,92550.00001139076,92588.88890028444,92680.5555669624,92719.44445585608,6.174447210723477,-30.290219389810662,58.7312550350612,-37.42914121569832,6.727448471270477,-0.0026004405018946,-20.024858872923573,47.43515408999088,-0.2696301670399923,-23.134131798691747,38.888888893678086,94.44444445603585,397.222222271128,130.5555555716419,169.44444446531998,225.00000002767774,130.5555555716419,f
104_123,33475,92780.55556697473,92916.66667810256,92986.11112255557,93055.55556700856,93380.55556704856,5.466678387163035,-1.7485739845840191,6.00953548378359,-4.603822098750375,66.35815652741582,17.489807465155234,-1.6449025414961207,2.96669022784355,0.1609324862633198,42.64318682368741,325.0000000400032,205.5555555808387,397.2222222711134,138.88888890600356,463.8888889460068,600.0000000738364,394.4444444929977,+
104_124,33618,93266.66667814564,93336.11112259864,93383.33334482668,93486.1111226171,93547.22223373574,4.408619717339939,-29.408388570682646,64.56936273993658,-56.42050981558387,26.995152749314872,-0.1569748857656526,-16.400986294356663,44.31664683571486,-17.01545983314003,-1.3045459834340911,61.111111118632834,116.66666668103426,772.2222223172575,150.00000001846638,211.11111113709921,280.5555555900937,163.88888890905946,/
104_125,33896,94036.1111226848,94113.88890047214,94155.55556714394,94258.33334493436,94316.66667827488,2.640844545342224,-28.15208814295936,58.48994797470919,-59.53961864110113,27.830802828359428,2.120965410608879,-21.015483450545204,47.32127423043595,-24.230110417421702,0.5924884955518253,58.33333334051713,119.44444445913541,827.777777879659,144.44444446222042,202.77777780273755,280.55555559007917,161.11111113094375,/
104_126,34194,94863.88890056446,94938.88890057369,94983.3333450236,95091.66667837028,95161.11112282326,3.264623963633802,-28.902371866099305,62.7091699143826,-57.36304354271905,34.8098654531341,0.8921010043323419,-19.061668009117074,44.326319163450826,-1.1580626332482722,2.36156806685824,69.44444445297995,119.44444445913541,844.4444445483823,152.77777779659664,222.2222222495766,297.2222222588025,177.7777777996671,/
104_127,34498,95711.11112289096,95786.11112290018,95827.77778957198,95936.11112291864,96000.0000118154,2.5412534993608205,-29.647676722531404,60.86249473904654,-59.852350465583,28.641947845895736,1.9825557006681245,-23.343632705008183,55.52391829248736,-15.155733680630773,3.158968101617609,63.88888889676309,116.6666666810197,822.2222223234276,150.00000001845183,213.88888891521492,288.88888892444083,172.22222224342113,/
104_128,34794,96541.66667854872,96605.55556744548,96650.0000118954,96752.77778968582,96813.88890080444,2.201707177300245,-28.655118684452027,58.47125555450624,-61.197751356752114,28.760048120211938,2.3002564907657903,-21.031988122256934,50.58304129072906,-17.425953987289244,0.405597682903998,61.11111111861828,108.33333334668714,825.0000001015142,147.22222224033612,208.3333333589544,272.2222222557175,163.88888890903036,/
104_129,35091,97363.88890087216,97433.33334532514,97475.00001199692,97572.22223423111,97630.55556757165,2.3529100420131503,-29.534015565249188,66.73447835073289,-64.72518510466615,29.570331776989,1.589190583928186,-22.012731605627188,53.296725627061065,-26.29595072507173,4.285905217418321,58.33333334053168,111.11111112475919,744.4444445360859,138.88888890597445,197.22222224650613,266.6666666994861,155.5555555747269,/
104_130,35359,98100.00001207386,98166.66667874872,98219.444456533,98263.88890098291,98336.11112321402,4.636196830851167,-49.502080446472775,135.91641226592245,-67.1438968617258,7.767139897003099,0.2137934999179054,-3.300066127816584,22.22382675142601,-20.668826119353167,3.324414835732938,72.22222223111021,119.44444445914996,838.8888889921363,97.22222223419521,169.44444446530542,236.11111114016967,116.6666666810197,N
104_131,35661,98875.00001216924,99011.1111232971,99058.33334552514,99105.55556775317,99172.22223442805,6.636685998300012,-69.67666351219067,169.24650227583734,-73.58786083636245,8.56580462480905,-0.0669703762407482,-20.451539605362218,76.29883033968538,-34.32531031941362,5.933498477386428,66.6666666748788,183.3333333558985,769.4444445391418,94.44444445606496,161.11111113094375,297.2222222588025,113.888888902904,f
104_132,35938,99730.5555678301,99786.11112339247,99827.77779006428,99883.33334562668,99997.2222345296,7.499431189942363,-27.84188339901105,55.30590234456683,-13.512471731036804,5.619202607343313,1.2151607224788334,-19.22869288287143,42.80336943624404,-2.1655972340432195,14.244388846097666,113.88888890291855,97.22222223418066,797.2222223203571,97.22222223420977,211.11111113712832,266.66666669950064,169.44444446531998,f
104_133,36225,100513.88890125984,100577.7777901566,100625.00001238464,100727.77779017504,100791.6666790718,4.197143754257303,-33.349211510633445,65.5527861578106,-58.35857791290733,26.34426825240189,0.2313279217692783,-20.258084752681658,53.95093282501792,-8.810891216768509,-10.680472929037744,63.88888889676309,111.11111112480285,844.4444445483532,150.00000001843728,213.88888891520037,277.77777781196346,166.6666666871606,/
104_134,36529,101352.77779025196,101425.00001248308,101469.444456933,101575.00001250156,101638.8889013983,2.8689601971022687,-28.742186265538585,57.81245691591423,-50.31573787497896,22.35886661621776,-4.628089742592021,-18.712138899094622,43.253296009789885,-16.117649567206048,9.035852178967,63.88888889673399,116.66666668103426,827.7777778796881,150.00000001848093,213.88888891521492,286.1111111463397,169.44444446530542,/
104_135,36827,102186.11112368788,102255.55556814086,102297.22223481268,102400.0000126031,102463.88890149984,1.4880540320094104,-27.96008167154884,58.2706696701477,-61.67267882545809,29.30271411930073,5.047072695732912,-24.75063385953903,48.98666339720579,-21.52094851642425,9.435348832413284,63.88888889674854,111.11111112480285,338.88888893058174,144.44444446223497,208.3333333589835,277.77777781196346,166.6666666871606,/
104_136,36949,102463.88890149984,102547.22223484344,102636.11112374326,102744.44445708992,103119.44445713608,29.30271411930073,-2.9974276719792163,0.0427084310425383,-0.3024426731696267,61.33616583574001,9.435348832413284,1.521153588479636,-0.8213803402358182,6.481008458781211,46.58600875776537,375.0000000461587,172.22222224342113,483.3333333928167,197.22222224647703,572.2222222926357,655.5555556362378,483.3333333928167,~
104_137,37123,103005.55556823318,103075.00001268616,103119.44445713608,103227.77779048277,103291.6666793795,2.05787011800968,-26.060552770714164,61.33616583574001,-55.85445690226656,30.78701312809929,7.674577218101998,-21.335778328888715,46.58600875776537,-21.5946969084018,-15.249833431760004,63.88888889673399,113.888888902904,816.6666667671816,152.7777777966112,216.66666669334518,286.11111114632513,172.22222224342113,/
104_138,37417,103827.7777905566,103886.1111238971,103936.11112390326,104038.88890169367,104102.77779059044,3.457129072321146,-30.14657362754815,58.191836346554425,-53.97867558308558,27.46584569495604,1.8426359437194104,-36.04052460305171,64.0673114199002,-4.909280061580684,-3.620545499653636,63.88888889676309,108.33333334665804,811.1111112109356,152.77777779656753,216.66666669333063,275.0000000338332,166.66666668717517,/
104_139,37709,104633.3333462113,104702.77779066427,104747.2222351142,104847.22223512652,104908.33334624514,3.9135063918345687,-30.6463953797512,62.59272162241425,-57.04595411199449,28.02132771605497,11.45018020739716,-52.71596458169465,73.24253962338614,-22.243235708201404,-3.533058978380135,61.11111111861828,113.888888902904,744.4444445360859,144.44444446224952,205.5555555808678,275.00000003384775,161.11111113094375,/
104_140,37977,105369.444457413,105438.888901866,105491.66667965028,105536.11112410018,105611.11112410942,4.436098209601661,-54.40826092448196,147.4271190970528,-78.04128437119617,9.95232346290776,13.596869461143172,-0.7890587093864141,33.22059151504697,-22.489214441958485,-1.6932582080934293,75.00000000924047,122.22222223728022,836.1111112139915,97.22222223418066,172.22222224342113,241.66666669641563,119.44444445913541,N
104_141,38278,106141.66667973028,106266.66667974566,106327.77779086427,106372.2222353142,106433.33334643285,6.857362176699636,-58.20694795495844,132.08068623243,-77.0055818776616,9.894336901556242,-3.9893332061720495,-2.433695533480469,50.45095849663392,-51.35760065210773,26.224624331512302,61.111111118647386,186.11111113399966,822.2222223234276,105.55555556854233,166.66666668718972,291.6666667025711,105.55555556857144,f
104_142,38574,106966.6666798318,107105.5555687378,107150.0000131877,107247.2222354219,107302.77779098428,2.485376884514796,-22.5627347186624,49.17703331771093,-61.07377045815264,29.167019869888367,-3.972967195864607,-24.249401545648368,48.9212036910571,-15.830762307338524,-3.632100208861673,55.55555556238687,183.3333333558985,827.777777879659,141.6666666841047,197.22222224649158,336.1111111524806,152.7777777965821,/
104_143,38872,107847.22223549572,107933.33334661744,107977.77779106736,108077.77779107969,108141.66667997642,4.320746369646536,-30.38126972959383,58.04884355880085,-59.31139333219489,26.9260928270065,-0.4882421666570526,-27.074696590018995,57.901491070009016,-20.38880814656129,3.3712354389256225,63.88888889673399,130.5555555716419,813.8888889890804,144.44444446224952,208.3333333589835,294.44444448070135,163.88888890905946,/
104_144,39165,108677.77779115352,108747.2222356065,108791.66668005644,108891.66668006872,108952.77779118736,3.822083197660255,-27.221291705568827,59.777753903610446,-59.44088463635504,30.48961883070502,18.019145178846003,-14.297301138161789,46.27779638576877,-9.182636953833097,3.249262511787366,61.111111118632834,113.88888890291855,825.0000001015142,144.44444446222042,205.55555558085325,275.0000000338332,161.11111113091465,/
104_145,39462,109508.3333468113,109572.22223570805,109616.66668015796,109716.66668017028,109780.55556906702,3.4093692312768358,-26.11954576932498,55.67996635381675,-60.77533788443012,26.73872315487142,8.53898895315412,-25.479060148231,61.540469434291474,-17.78351794911554,6.363331300702001,63.88888889673399,108.33333334665804,811.1111112109502,144.44444446223497,208.33333335896896,272.2222222557175,163.88888890905946,/
104_146,39754,110283.33334690669,110383.33334691898,110427.7777913689,110530.55556915932,110591.66668027797,2.333969515565909,-27.267791029634346,62.57283359859396,-59.17721423305249,29.00607193691976,2.6656029067538967,-22.64998023942528,49.78194750646933,-12.776565105211386,2.993720697687044,61.111111118647386,144.44444446222042,791.6666667640966,147.22222224033612,208.3333333589835,308.3333333712799,163.88888890905946,/
104_147,40039,111108.3333470082,111175.0000136831,111219.444458133,111313.88890258908,111375.0000137077,2.759359854408799,-28.384499211061364,59.49595713059416,-60.45377197458932,30.330265679735124,-6.175937410259826,-20.10050612958761,45.93205819177013,-22.18599227626313,2.51824056493431,61.11111111861828,111.11111112480285,730.5555556454783,138.888888905989,200.0000000246073,266.66666669950064,155.5555555746978,/
104_148,40302,111825.00001376309,111897.2222359942,111950.00001377848,111991.66668045027,112291.6666804872,5.284150727599613,-49.61426662950154,139.07139106295122,-71.2976236084503,9.024772015420226,4.671927233840694,-2.379120649364633,35.74122085246693,-41.617006787509006,17.597581523263436,300.0000000369182,125.00000001539593,847.2222223264835,94.44444445607951,394.4444444929977,466.6666667241079,341.666666708712,N
104_149,40607,112680.55556942394,112744.4444583207,112797.22223610496,112844.444458333,112908.33334722977,5.615772350406008,-61.69343308259488,160.31694242746352,-71.92808014533327,7.74103627968061,5.283663438056957,-20.183033294583662,77.98550696021316,-50.57576668458435,22.37489972549651,63.88888889676309,116.6666666810197,841.6666667702812,100.00000001231092,163.888888909074,227.77777780582255,111.11111112480285,f
104_150,40910,113541.66668064104,113597.22223620344,113638.88890287525,113702.77779177198,113750.00001400002,7.752607867635795,-28.1150350433258,53.69404679144855,-12.55337796001782,11.459260690826234,0.5062032788554796,-16.693784154370995,33.44773951815653,-6.32812766088006,5.495269249727405,47.222222228039755,97.22222223420977,497.22222228339524,105.55555556854233,152.7777777965821,208.3333333589835,111.11111112477374,f
104_151,41089,114055.55556959315,114113.88890293369,114136.11112515864,114225.00001405847,114466.66668075488,5.649930423560037,-3.71557905923422,-0.1780295192007837,-5.223626738410008,64.1009399452053,3.9055361552048575,1.1552088589809073,-1.1052885110732436,-0.3771214141898551,42.62113817402449,241.66666669640108,80.55555556548643,336.1111111524806,111.1111111247883,352.7777778211894,411.11111116172106,330.5555555962346,~
104_152,41210,114347.22223629574,114425.0000140831,114472.22223631112,114577.77779187966,114644.44445855454,6.373504237523455,-27.64458325091393,57.81215143082758,-56.504079499306926,22.233371086006137,5.669951221310021,-25.1891654013803,48.99514836602009,-6.568182455423321,13.208206151414046,66.6666666748788,125.00000001538137,836.1111112140206,152.77777779656753,219.44444447144633,297.2222222588025,172.22222224342113,/
104_153,41511,115194.44445862224,115263.88890307525,115308.33334752514,115413.88890309368,115475.00001421232,8.082435688301254,-27.02501071274503,44.31636786129247,-60.02397733494876,27.228172726003184,3.753715972151257,-13.624031341530944,52.30105166950361,-42.63434977709791,13.367699502150984,61.111111118632834,113.888888902904,808.3333334328199,150.00000001843728,211.1111111370701,280.55555559007917,166.66666668717517,/
104_154,41802,116019.44445872377,116066.6666809518,116116.66668095796,116219.4444587484,116275.00001431078,5.336917991959794,-27.62818487202944,47.57360144021835,-64.17855046332991,40.00871599975165,1.8019278136129475,-16.773900620394812,45.81077272249021,-22.217726759902728,-1.413846622259754,55.55555556237232,97.22222223419521,927.7777778919553,152.77777779659664,208.33333335896896,255.5555555870087,158.3333333528135,/
104_155,42136,116925.00001439078,117027.7777921812,117044.44445884992,117044.44445884992,117161.11112553097,53.55909236957916,-61.83651475849872,-38.6332893953008,-38.6332893953008,19.034013391919917,25.834825261425276,-45.14257736423973,-66.59624206251885,-66.59624206251885,6.856212534995811,116.66666668104881,119.44444445913541,655.5555556362378,16.666666668723337,133.33333334977215,236.11111114018422,116.66666668104881,/
104_156,42372,117550.0000144677,117658.33334781438,117700.00001448616,117791.66668116412,117850.00001450462,14.013868062883397,-27.212368764281983,66.39040473751581,-61.138121114109246,43.11268474105907,-3.1668016678077517,-22.64562173111147,62.28250079118876,-30.08969579975845,8.633104313853238,58.33333334050258,150.00000001845183,775.0000000954024,133.33333334974304,191.66666669024562,300.0000000369182,150.00000001846638,/
104_157,42651,118358.33334790052,118427.77779235352,118475.00001458156,118572.22223681574,118636.11112571249,8.155342694947192,-28.856039122304963,62.57060739363252,-60.5657542420367,28.945158512587483,-2.1418815797975466,-21.28643158909166,58.31322190493917,-17.305470070718428,-5.485721577113509,63.88888889674854,116.66666668103426,836.1111112140061,144.44444446222042,208.33333335896896,277.77777781196346,161.1111111309292,/
104_158,42952,119183.33334800208,119258.33334801128,119311.11112579556,119355.55557024547,119419.44445914224,6.114568875968696,-54.55744184608736,133.56061334189286,-65.19937046929623,9.859079894209405,0.4716992694100129,-12.292802480798168,27.960586951069125,-23.775995547686307,4.084057157450017,63.88888889676309,127.77777779348253,811.1111112109502,97.22222223419521,161.1111111309583,236.11111114015512,108.33333334667259,f
104_159,43244,119930.55557031624,120069.44445922224,120122.22223700651,120166.66668145642,120433.33334815592,7.493348074474701,-49.674104945352674,133.0391431555708,-70.5975386899913,6.4499541357173085,1.7684552601469885,-6.553883283627645,33.07639130133102,-31.23021304764492,2.0574354942138022,266.66666669950064,191.66666669027472,866.6666667733225,97.22222223418066,363.8888889336813,502.77777783968486,311.11111114941014,N
104_160,43556,120805.55557042394,120933.33334821743,120988.88890377984,121036.11112600788,121105.55557046089,7.702367155964037,-69.91606950893268,143.3297212979351,-78.77381910191131,8.284956842622124,-0.6129231709822802,-28.32983431773989,60.74702391685834,-45.63308996172857,31.071838953387715,69.44444445300905,183.3333333558985,797.2222223203426,102.77777779044118,172.22222224345023,300.0000000369473,116.66666668104881,f
104_161,43843,121700.00001497848,121747.22223720652,121786.11112610018,121850.00001499694,121905.55557055931,6.768089253597794,-30.732022389664927,58.9257157033636,-24.003324108500152,10.720885557090318,-8.455844490671016,-16.559918367831937,51.42544984846432,-22.516261044666845,2.6264634615302227,55.55555556237232,86.11111112170329,825.0000001015433,102.77777779042663,158.33333335279895,205.5555555808387,119.44444445913541,f
104_162,44140,122438.8889039583,122555.55557063934,122611.11112620172,122702.77779287969,122766.66668177642,10.667787506836849,-24.821920041130547,49.83007792598208,-59.07033971083647,38.36707860926325,-21.113344590644093,-36.50955951600788,97.42964872493172,-7.191114298510049,-14.848001805833904,63.88888889673399,172.22222224342113,780.5555556516192,147.22222224035067,211.11111113708466,327.7777778181189,155.5555555746978,/
104_163,44421,123275.00001517232,123341.6666818472,123391.66668185334,123483.33334853128,123561.11112631865,7.979346056267931,-46.88663559583862,55.37817703392376,-60.82612017763855,27.722314784849143,1.371963363568143,-19.74676224602117,48.86282752054228,-16.742486372069976,1.9589499162726565,77.77777778737072,116.6666666810197,769.4444445391564,141.6666666840756,219.44444447144633,286.11111114632513,169.44444446530542,/
104_164,44698,124019.4444597084,124111.11112638634,124161.1111263925,124261.1111264048,124319.44445974533,12.309133051175955,-22.653063485404363,59.988204850294096,-58.368051413401126,28.283870211953264,1.578323389995333,-23.1480647881952,51.018245270237855,-31.76242014583952,-11.364838244302716,58.33333334053168,141.6666666841047,844.4444445483823,150.00000001845183,208.3333333589835,300.00000003693276,158.33333335282805,/
104_165,45002,124869.444459813,124955.55557093472,125005.55557094088,125108.33334873128,125177.77779318429,8.157411141246305,-23.656526895218988,52.28607416989895,-63.78028948568018,30.74845202741104,1.0647516380705229,-17.951986517180014,50.84813269059075,-14.736381316060818,4.125519470543559,69.44444445300905,136.1111111278733,844.4444445483532,152.77777779655298,222.22222224956204,308.3333333712799,172.22222224340658,/
104_166,45306,125694.44445991456,125802.7777932612,125850.00001548923,125952.77779327967,126011.1111266202,2.7545138316446978,-30.259199781304925,54.570317746039166,-58.83482849784198,32.68034200662658,-2.8709689660855857,-20.35438836302075,52.658324245733546,-19.395808499081625,-9.404478870273335,58.33333334053168,155.5555555746687,816.6666667672107,150.00000001848093,208.3333333590126,316.66666670564155,161.11111113097286,/
104_167,45600,126500.00001556924,126622.2222378065,126666.66668225644,126763.8889044906,126825.00001560924,7.838096859385336,-33.81177799449137,49.64624036477787,-65.87676731754767,27.15718938778437,-2.721495275679011,-17.34822811324669,45.99578295779019,-20.156869044251973,-1.6080731621628264,61.111111118647386,166.66666668720427,825.0000001015142,141.66666668409016,202.77777780273755,325.0000000400032,158.33333335279895,/
104_168,45897,127338.88890456138,127441.6666823518,127491.66668235796,127583.33334903592,127647.22223793268,6.574277181415845,-33.734029397541015,62.392803697107546,-62.306388203627975,37.62526136033474,1.9856616438456065,-17.718979321783216,51.89157006559535,-23.9352485427817,6.658572380197559,63.88888889676309,152.7777777965821,786.1111112078652,141.66666668411926,205.55555558088236,308.333333371309,155.5555555747269,/
104_169,46180,128152.77779355044,128227.77779355968,128277.77779356582,128322.22223801576,128391.66668246873,10.69077922202136,-55.219968695036194,135.47771878135492,-63.0659800692337,11.89354512899922,1.3459630490080938,-14.057675666552491,41.94007974313713,-26.472290932076213,6.807826493820917,69.4444444529654,125.00000001538137,766.6666667610116,94.44444445607951,163.8888889090449,238.88888891828537,113.888888902904,f
104_170,46456,128877.77779363967,128994.4444603207,129044.44446032683,129088.88890477676,129405.5555714824,10.18337802066664,-47.86353606993479,133.87063233336704,-69.62935424106854,8.44154141219009,3.5536494785901813,-7.281028233041943,41.75680835491665,-31.79282751126049,4.4364411483788055,316.66666670564155,166.6666666871606,802.7777778766031,94.44444445606496,411.1111111617065,527.7777778427262,361.1111111555656,N
104_171,46745,129663.88890484754,129797.22223819728,129847.22223820344,129891.66668265336,129950.00001599386,10.00334758626005,-64.80366042833549,164.92934907253593,-71.36623568985662,7.337870612428043,-1.0410613024122486,-18.588082655150348,71.26580677924923,-36.57069054392945,8.233557667528395,58.33333334050258,183.3333333558985,800.0000000984583,94.44444445607951,152.7777777965821,286.11111114632513,102.77777779042663,f
104_172,47033,130552.77779384585,130605.5555716301,130647.2222383019,130691.6666827518,130736.11112720172,8.794240660570182,-29.29312495621076,56.43341655699493,-20.761778413813268,36.28837387179551,0.134598848030744,-15.264700283040352,37.710171638193415,-2.7478976223311244,3.4499764003208484,44.4444444499095,94.4444444560504,852.777777882744,86.11111112170329,130.55555557161279,183.3333333558694,88.888888899819,f
104_173,47340,131330.5555717193,131416.66668284105,131500.00001618464,131600.00001619695,131661.11112731558,6.729744807650697,-22.43593394878963,56.75584949970592,-54.10105215920101,35.90942801729231,-1.1908855990528813,0.3067191136279467,51.57471287914429,-20.65759141434344,-17.761228255517214,61.111111118632834,169.44444446533453,822.222222323413,183.3333333558985,244.44444447453134,330.5555555962783,161.11111113094375,/
104_174,47636,132202.77779404892,132269.44446072378,132322.22223850805,132422.22223852036,132497.2222385296,10.632325247858011,-24.87463228454519,41.88263978988237,-64.69142922253224,29.632636945071678,-0.0328740802378125,-40.02930569514776,86.61884978504196,5.960554303413979,-19.6152512311951,75.00000000922591,119.44444445913541,838.8888889921363,152.7777777965821,227.777777805808,294.44444448067225,175.00000002153683,/
104_175,47938,133013.88890525984,133119.44446082838,133161.1111275002,133269.44446084686,133344.4444608561,31.43806511366729,-39.39783201250528,59.83135252342711,-68.07283799643989,51.08760538316319,8.25985357295324,-12.531974843004411,52.991553045260446,-27.388056097106496,12.285632155949138,75.00000000922591,147.22222224035067,816.6666667671816,150.00000001848093,225.00000002770685,330.5555555962492,183.3333333558985,/
104_176,48232,133777.77779424275,133916.66668314874,133977.77779426737,134080.55557205778,134136.11112762018,13.405735900830564,-38.11964492594711,71.73820732722288,-53.295493604067424,22.303571007757323,2.013421655068238,-26.762247487282057,74.08373241615313,-49.254643258895314,-10.74136672711666,55.55555556240142,200.00000002462184,816.6666667671816,163.8888889090449,219.44444447144633,358.33333337743534,158.3333333528135,/
104_177,48526,134633.3333499036,134752.77779436274,134794.44446103455,134869.44446104378,134972.2222388342,14.521587785356232,-23.212789506905057,47.35288241703663,-55.56249855135811,25.480987882459267,-6.014294172004719,-23.83885511215853,72.81134165767634,-10.9757271686475,36.7813697320521,102.77777779041207,161.11111113094375,777.7777778735035,116.66666668103426,219.44444447144633,338.88888893058174,177.777777799638,/
104_178,48806,135397.22223888652,135536.11112779248,135572.22223890806,135663.888905586,135736.1111278171,10.538100130626056,-22.6862447906066,50.29107896536682,-57.26777282806515,32.69397166916633,-4.058566950797247,-15.306457722771457,53.66619103351697,-34.27320066703714,35.299607950469735,72.22222223109566,175.00000002153683,775.0000000953733,127.77777779352618,200.00000002462184,338.88888893058174,163.8888889090449,/
104_179,49085,136216.6666834318,136294.44446121916,136347.22223900343,136444.4444612376,136502.77779457814,4.992915647026369,-20.098145182750688,58.6659725358927,-50.97371536968879,34.789993908547046,0.9245986809178726,-26.15038413715929,65.54978352644186,-24.73683748497924,-25.95483840794055,58.33333334053168,130.55555557162734,850.0000001046283,150.00000001845183,208.3333333589835,286.1111111463397,155.55555557471234,/
104_180,49391,137061.1111279802,137152.77779465815,137197.22223910806,137291.6666835641,137350.00001690464,11.235533657219516,-23.52047299185612,59.503753599669295,-65.55205985154878,34.7612633589556,12.535282523440763,-13.348393009702896,45.51392374466014,-40.68036712932477,0.4276838552031092,58.33333334053168,136.11111112785875,813.8888889890513,138.8888889059599,197.22222224649158,288.88888892444083,152.7777777965821,/
104_181,49684,137822.22223918498,137958.33335031284,138011.1111280971,138058.33335032515,138130.55557255624,10.62846821246775,-57.63091328416844,134.02114166411218,-61.00436468511626,25.736605425597663,9.41623939027913,-9.714997555616405,28.56663212665617,-12.826844280055768,21.913501933599637,72.22222223109566,188.88888891212991,694.4444445299159,100.00000001231092,172.22222224340658,308.3333333712653,119.44444445913541,f
104_182,49934,138516.6666837149,138655.55557262088,138705.55557262702,138755.55557263317,138872.2222393142,12.611114014133236,-55.02436448022912,127.35171387422,-62.76110989120613,13.902901430815024,-9.373988696681815,1.9685740741009556,53.22595478628584,-32.693036470628606,-6.05561414567898,116.66666668103426,188.88888891212991,869.4444445514528,100.00000001228182,216.66666669331607,355.5555555993051,166.66666668717517,N
104_183,50247,139397.2222393788,139525.00001717234,139575.00001717848,139625.00001718462,139683.33335052515,9.03591330053326,-64.53336205584864,147.44473532271667,-80.01160261685548,15.915144073671096,-1.107332845327384,-27.77733960464193,73.84811335745691,-32.91040189277772,11.464096402335397,58.33333334053168,177.7777777996671,861.1111112170911,100.00000001228182,158.3333333528135,286.1111111463397,108.33333334667259,f
104_184,50557,140252.77779503967,140338.8889061614,140436.11112839557,140480.55557284548,140558.33335063283,11.609269477056966,-22.67997111279454,77.00561370317439,-46.76064504330891,22.632058822060827,2.171950085074576,-20.64636866650264,4.215942320027481,-24.892449948321087,2.494341452351965,77.77777778735617,183.3333333558985,730.5555556454638,141.66666668409016,219.44444447144633,305.5555555931642,122.22222223726567,f
104_185,50820,141058.33335069436,141111.11112847866,141166.66668404103,141275.0000173877,141577.77779520274,12.984950525950028,-26.596543018931,38.80659622725019,-24.35222120690934,19.31579226827245,4.218183373843573,-14.238599152376311,34.37163295456183,-52.529428118143066,-11.849341329569322,302.7777778150339,108.33333334667259,522.2222222865093,163.8888889090449,466.6666667240788,519.4444445083791,411.1111111617065,f
104_186,51008,141577.77779520274,141619.44446187455,141688.88890632754,141741.6666841118,141936.11112858017,19.31579226827245,-8.02059545834167,-3.597557060244236,-8.644413049133796,66.09638321007644,-11.849341329569322,1.0594685553929462,1.9109601756030916,-2.7392657485963667,50.010997325884,194.44444446836133,111.11111112480285,247.2222222526325,122.22222223726567,316.666666705627,358.33333337743534,247.2222222526325,~
104_187,51097,141780.5555730055,141894.4444619084,141936.11112858017,142022.2222397019,142066.6666841518,11.478529134037895,-26.67183193973324,66.09638321007644,-52.617368914346656,15.72805253656507,-0.0663179593189739,-19.087413180737144,50.010997325884,-27.29227051465857,-24.44385238377401,44.4444444499095,155.55555557468324,825.0000001015433,127.77777779349708,172.22222224340658,286.1111111463106,130.55555557162734,f
104_188,51394,142627.777795332,142713.88890645368,142761.11112868172,142858.33335091593,142927.7777953689,12.33139573155074,-31.100552940734516,62.060352328369646,-47.12977606018089,23.50366211161398,0.9225138585142034,-17.415154935911943,50.18289455142373,-5.100854046008388,-24.23756416609869,69.4444444529654,133.3333333497285,841.6666667702666,144.44444446224952,213.88888891521492,300.00000003690366,166.66666668717517,/
104_189,51697,143491.66668432718,143555.55557322394,143602.77779545198,143705.5555732424,143766.66668436103,11.830276547302482,-33.57870108588632,66.41973120814852,-38.753319678665775,23.71641124294308,3.622446482448932,-19.486410103568947,49.3815070498702,-11.442356380453692,-15.162493054533686,61.111111118632834,111.11111112480285,825.0000001015433,150.00000001845183,211.11111113708466,275.00000003384775,163.8888889090449,/
104_190,51994,144313.88890665062,144377.77779554736,144427.77779555353,144527.77779556584,144591.66668446257,5.681599608677964,-27.70121253409708,59.99098096966723,-51.90060791952152,24.36164078496541,1.8267110706563596,-19.927507580937025,57.50494757812909,-20.13306499606073,-2.3390256026907794,63.88888889673399,113.888888902904,836.1111112140061,150.00000001848093,213.88888891521492,277.7777778119489,163.8888889090449,/
104_191,52295,145086.11112896787,145216.6666845395,145263.88890676753,145352.77779566735,145413.888906786,13.564546074493771,-29.581829480269896,69.69023089278262,-59.91658971337242,25.813285573603626,2.332234341553388,-20.7425780984306,48.55069514958294,-11.132952658234457,-15.072684037133772,61.111111118632834,177.7777777996671,558.3333334020572,136.11111112785875,197.22222224649158,327.7777778181189,150.00000001845183,/
104_192,52496,145680.5555734855,145719.44446237915,145822.2222401696,145863.88890684137,146069.44446242225,11.775287003264712,-11.759525055363564,2.209129712154825,-5.983451252193541,70.17281279428985,7.318433932600908,-3.9278348366957614,-5.95568955232496,5.459766965517157,40.74309841104801,205.55555558088236,141.66666668409016,252.777777808893,144.44444446222042,350.0000000431028,388.88888893675175,247.2222222526616,~
104_193,52587,145916.66668462567,146027.77779575044,146075.00001797848,146166.66668465643,146238.88890688753,4.963940009301997,-23.189279863095045,65.19793507004131,-63.49370173499662,35.60399547762134,-1.922012874167495,-17.232273476263796,46.17540589979323,-22.207601113958106,20.573725871431943,72.22222223109566,158.3333333528135,800.0000000984583,138.888888905989,211.11111113708466,322.2222222618584,163.8888889090449,/
104_194,52875,146766.66668473027,146816.66668473644,146875.00001807694,146958.33335142053,147041.66668476412,12.93696382980666,-30.822196734314964,66.3825441699828,-70.69499200702022,22.07095398566784,2.757428316872708,-18.102448598109003,57.60350426121532,-14.746074036889537,24.41780536840004,83.33333334358758,108.33333334667259,775.0000000953733,141.66666668409016,225.00000002767774,275.00000003384775,166.66666668717517,/
104_195,53154,147511.11112926636,147602.77779594428,147650.00001817232,147741.66668485026,147791.66668485643,13.399005504030454,-30.971270855054858,73.68211799119965,-63.94080215704874,35.47044521860336,-1.9209184847511536,-22.77800463096689,55.716464755546,-43.890128744816295,-20.05851918260964,50.00000000617001,138.8888889059599,783.333333429764,138.888888905989,188.88888891215902,280.55555559007917,141.66666668411926,/
104_196,53436,148288.88890713986,148388.88890715214,148433.33335160208,148525.00001828003,148586.11112939866,5.883219766728297,-26.922268960561905,56.827893258659984,-60.98144098294235,22.74936797959132,1.8142445348525973,-22.31482436948762,50.02333597344496,-0.8199199638401464,-43.91080593002853,61.111111118632834,144.44444446222042,841.6666667702375,136.11111112788785,197.2222222465207,297.2222222588025,152.7777777965821,/
104_197,53739,149172.2222405819,149222.22224058805,149275.00001837232,149361.11112949403,149647.22224064037,11.5394035511731,-39.5972024545852,55.917866500217336,-63.41855418843281,29.021805606865207,1.2466134152988673,-15.63866319060656,48.006060476024174,-11.440451880816648,6.11995057927013,286.1111111463397,102.77777779041207,822.222222323413,138.888888905989,425.0000000523287,475.0000000584696,372.2222222680575,/
104_198,54035,150000.00001846155,150055.55557402395,150097.22224069573,150194.44446292994,150252.77779627044,11.143059036423878,-39.3939260433316,73.19853747037477,-67.32799612696545,38.61315862038719,1.0559814994749332,-17.823406214801288,53.74604404451046,-30.573837246515257,-9.215680164667416,58.33333334050258,97.22222223418066,361.1111111555656,138.888888905989,197.22222224649158,252.777777808893,155.55555557471234,/
104_199,54165,150333.3333518359,150438.88890740447,150458.3333518513,150502.7777963012,150819.44446300686,3.394584330004595,-11.022190080626071,9.019073606517592,-1.3889167845174892,129.38041563478478,11.45529465000537,-3.688064342575217,2.801719379450672,13.463139117675407,22.14346737576971,316.6666667056561,125.00000001539593,361.1111111555656,63.88888889673399,380.5555556023901,486.1111111709615,361.1111111555656,+
104_200,54295,150627.7777963166,150763.88890744446,150819.44446300686,150872.22224079113,151213.88890749984,5.15535177555044,-49.22361674719538,129.38041563478478,-72.49792488560074,17.58080698487703,-3.972996190051104,-4.103741082788694,22.14346737576971,-13.977672089169852,2.901719132069377,341.666666708712,191.66666669026017,802.7777778765885,108.33333334667259,450.0000000553846,586.1111111832433,394.44444449298317,N
104_201,54584,151450.00001864,151575.0000186554,151622.22224088345,151666.66668533336,151719.44446311763,17.964139629246045,-60.00869556232658,149.27752526179216,-86.28286363134748,20.984234279243267,2.2946853204500077,-9.30127371212076,53.5179825233695,-47.79455773369017,14.671697906660723,52.777777784271166,172.22222224343568,819.4444445452827,91.66666667794925,144.44444446222042,269.44444447761634,97.22222223418066,N
104_202,54879,152252.7777965166,152388.88890764446,152441.66668542873,152486.11112987864,152597.22224100344,7.39088017832614,-49.98751880298256,130.3441833137016,-67.73767441031566,10.331888647153958,3.2435847251332945,-12.0305654970505,49.20187936995228,-39.85091227682999,-4.421060831058874,111.11111112480285,188.88888891212991,816.6666667671816,97.22222223418066,208.3333333589835,344.44444448684226,155.55555557471234,N
104_203,55173,153152.77779662737,153216.6666855241,153258.3333521959,153302.77779664582,153563.88890778908,15.616413558595609,-63.90643085878296,163.16643786589322,-80.53371515484163,10.990265664654348,0.3335317955912048,-8.415875510703502,78.18548407703932,-43.75987873980341,-0.6142258217513741,261.1111111432547,105.55555556854233,808.3333334328199,86.11111112171784,347.2222222649725,411.1111111617065,305.5555555931642,f
104_204,55464,153894.44446338533,153997.22224117574,154066.66668562873,154105.5555745224,154400.00001900308,9.611945246570858,-42.563611416825175,123.11582776032172,-74.11794473806593,8.25488981986169,2.733166699279292,-32.30636843176955,22.992425998714623,-47.787584714039646,6.806125878733223,294.44444448067225,172.22222224340658,866.6666667733225,108.33333334667259,402.77777782734483,505.5555556177569,333.33333337435033,f
104_205,55776,154702.77779681815,154836.11113016788,154933.33335240206,154975.00001907386,155061.11113019558,13.31421556413462,-9.187273309182714,45.970801386599575,-42.952063478657735,16.000536315263325,-3.4311713438069305,-15.19913656311168,4.794947258063227,-32.029976507523244,-1.067926261785989,86.11111112171784,230.55555558390915,761.1111112048093,138.888888905989,225.00000002770685,358.33333337743534,127.77777779352618,f
104_206,56050,155605.55557470702,155647.22224137883,155694.44446360687,155783.33335250668,155830.55557473472,7.975873836863109,-25.881170276152083,67.63643325041086,-36.70675171184909,9.676748101826814,-1.1326411097977762,-18.06758036089096,45.86778989771714,-4.185323227992981,-33.493022991567855,47.222222228039755,88.8888888998481,413.88888893980766,136.11111112785875,183.3333333558985,225.00000002770685,136.11111112785875,f
104_207,56199,156041.6666858718,156105.55557476857,156108.33335254667,156205.55557478088,156519.44446370838,6.439410944995473,-5.329131461004463,-5.770567794194987,-11.466392218434166,77.23035214312341,4.3486273720223085,-0.6825148264319746,-0.9201004006741428,-0.1684395283988082,50.13836307367004,313.88888892749674,66.66666667486425,413.88888893983676,100.00000001231092,413.88888893980766,477.77777783657075,411.1111111617065,+
104_208,56348,156402.77779702735,156447.22224147728,156522.2222414865,156613.88890816446,156675.0000192831,15.392520537929858,-27.096255646637697,75.85439685756732,-57.84461056125407,32.73077303973915,-2.6778373150731096,-0.6530900058682956,52.04229860841463,-7.541569130836901,-19.422198153564345,61.111111118632834,119.44444445916452,822.222222323413,166.66666668717517,227.777777805808,272.2222222557466,152.7777777965821,/
104_209,56644,157227.77779712892,157297.22224158188,157344.44446380992,157436.11113048787,157727.77779719044,18.069516878825848,-28.2139014993982,61.92624180245698,-63.63945994955178,21.20443027878336,0.5586401570908632,-19.11878842399608,51.676927187868856,-11.653574858179828,8.711788669984895,291.6666667025711,116.66666668100515,433.33333338666125,138.888888905989,430.5555556085601,500.0000000615255,383.33333338052034,/
104_210,56800,157622.2222416219,157694.444463853,157777.77779719658,157883.33335276516,158158.333352799,11.57509668893318,-10.23672893080862,-5.925408854735003,-13.481044447911565,62.38588033603549,-1.620086794322695,0.9056229813517754,3.917354183308075,-3.948367537795195,61.866281472467264,275.00000003384775,155.55555557468324,383.33333338052034,188.88888891215902,463.8888889460068,536.1111111771024,380.5555556024192,~
104_211,56938,158011.11113055865,158116.6666861272,158161.1111305771,158266.66668614565,158350.00001948923,8.59339429558154,-35.31210173145655,58.52859452855255,-44.50071469149584,23.54526693508833,1.6368240225073885,-23.356704766096676,62.73885905831664,-27.87314655930312,25.944368422124672,83.33333334358758,150.00000001845183,800.0000000984583,150.00000001845183,233.3333333620394,338.88888893058174,188.88888891212991,/
104_212,57226,158825.0000195477,158919.44446400378,158961.11113067556,159058.33335290977,159122.2222418065,9.650694350467845,-29.80723383851297,65.22399408683523,-67.59397004500936,41.16194156132722,2.9647496299074825,-18.68310045866379,45.9214616841068,-28.455180263051275,9.037525958951305,63.88888889673399,136.11111112785875,772.2222223172721,138.888888905989,202.777777802723,297.2222222588025,161.11111113094375,/
104_213,57504,159627.7777974243,159694.44446409916,159733.33335299283,159825.00001967078,159911.1111307925,10.533894054801676,-32.11647165124303,55.91557801374787,-69.65578968264353,31.423746009472453,-0.3734926642646659,-19.96694255893478,55.814382696309806,-35.02453457401424,30.636785287588413,86.11111112171784,105.55555556854233,797.2222223203571,130.55555557162734,216.66666669334518,283.3333333682094,177.7777777996671,/
104_214,57791,160425.00001974462,160486.11113086325,160530.5555753132,160633.3333531036,160694.44446422224,12.22205645935021,-45.14825430937516,70.01237537962426,-64.01500352205404,31.7819624092466,0.7830718456754144,-25.09352100047092,58.16372785722105,-22.21931708124805,-2.850802113991161,61.111111118632834,105.55555556857144,841.6666667702375,147.22222224035067,208.3333333589835,269.44444447761634,163.8888889090449,/
104_215,58094,161230.55557539934,161322.2222420773,161372.22224208343,161477.77779765197,161550.0000198831,6.725943258842534,-30.75748798577183,82.13332668327399,-51.50407862075141,37.183978667599,0.7298521523277041,-18.46895764284916,49.89594046613662,-12.877580740210632,18.66040260839297,72.22222223112476,141.66666668409016,825.0000001015433,155.55555557468324,227.777777805808,319.44444448375725,177.7777777996671,/
104_216,58391,162013.88890882907,162152.77779773506,162197.22224218497,162300.0000199754,162358.33335331592,6.163301694389435,-31.05970210137692,71.31073191618239,-51.32896143035845,31.92915820653823,-0.6904168703252102,-22.290461650860863,54.881029911997565,-17.713152321790933,-8.257495817324633,58.33333334050258,183.3333333558985,386.1111111586215,147.22222224035067,205.55555558085325,344.44444448684226,161.11111113094375,/
104_217,58530,162388.88890887523,162527.77779778122,162583.3333533436,162691.66668669027,162966.66668672411,8.81254372888428,-6.160648939396157,3.977657058438093,-3.715063685705208,151.35363362136528,26.561648237877435,-4.503656430394673,11.092512545077522,-4.278705301235257,54.33176136049086,275.00000003384775,194.44444446836133,386.1111111586506,163.8888889090449,438.88888894289266,577.7777778488817,383.33333338052034,+
104_218,58669,162833.3333533744,162916.66668671797,162969.44446450224,163013.88890895215,163083.33335340515,11.550705744499806,-59.71669262873396,151.17998069528315,-81.06428938631672,13.930560756857338,3.7116896433024977,-10.746120518622208,44.24039190096503,-43.256886270601406,8.317518409319426,69.4444444529945,136.11111112785875,783.3333334297349,97.22222223418066,166.66666668717517,250.00000003076275,113.888888902904,N
104_219,58951,163563.88890901985,163700.0000201477,163752.77779793198,163797.2222423819,163863.88890905678,10.8445008257319,-53.71176369927549,152.67383771883323,-85.32866639724321,10.906500159279728,3.1064934139408606,-3.41043364655198,33.158483756005424,-38.62127722686876,6.871328131122899,66.66666667489335,188.88888891212991,872.222222329583,97.22222223418066,163.888888909074,300.00000003693276,111.11111112480285,N
104_220,59265,164444.44446468377,164572.2222424773,164625.00002026156,164675.0000202677,165005.55557586395,8.706721905556796,-67.62622406736809,144.0093444489409,-71.1366409001409,12.774496340201438,-0.417687129820731,-29.359541145982213,70.04082495635849,-39.84080537870691,2.088603633405959,330.5555555962492,180.55555557779735,752.7777778704185,102.77777779041207,433.33333338666125,561.1111111801874,380.5555556023901,f
104_221,59536,165275.00002034157,165338.8889092383,165377.77779813198,165486.11113147865,165761.1111315125,11.72583842024203,-25.826526843291138,46.17980413003613,-29.569381243673025,4.508180962725631,-1.198335875667142,-19.65807337711161,43.288631498214514,-29.891746666192866,4.285246075565067,275.00000003384775,102.77777779041207,366.666666711797,147.22222224035067,422.22222227419843,486.1111111709324,383.33333338052034,f
104_222,59668,165583.33335371283,165702.77779817197,165744.44446484378,165850.00002041232,166155.55557600548,3.21753043090498,-2.815695698050991,2.4240744741025666,-1.2307701821465502,68.7408796168417,-1.1816492302614066,-1.495465808145258,4.301822713374337,-1.071012355708095,57.81394271312739,305.5555555931642,161.11111113094375,22.22222222495475,147.22222224035067,452.77777783351485,572.2222222926503,411.1111111617065,~
104_223,59676,165583.33335371283,165702.77779817197,165766.66668706873,165875.0000204154,166155.55557600548,3.21753043090498,-2.815695698050991,4.275066940519281,-2.187167179099717,68.7408796168417,-1.1816492302614066,-1.495465808145258,3.260057226091479,-2.091139653376378,57.81394271312739,280.55555559007917,183.3333333558985,388.88888893675175,172.22222224343568,452.77777783351485,572.2222222926503,388.88888893675175,+
104_224,59816,166019.44446487763,166111.11113155558,166155.55557600548,166252.77779823967,166313.8889093583,4.569153114175409,-18.7262754805254,68.7408796168417,-64.16901824619202,31.787197832576386,4.239430197061783,-22.002075285154405,57.81394271312739,-13.684019826254865,-18.911306645939504,61.111111118632834,136.11111112785875,850.0000001046283,141.66666668409016,202.777777802723,294.44444448067225,158.3333333528135,/
104_225,60122,166902.77779831967,166963.8889094383,167005.5555761101,167094.44446500993,167158.3333539067,3.416647191483929,-28.047959709503857,66.81407227283232,-65.53816200630887,32.890448779057344,2.046652924679322,-18.425297483708448,57.40884410579951,-13.660522312276704,-6.93634727944358,63.88888889676309,102.77777779044118,830.5555556577747,130.55555557162734,194.44444446839043,255.55555558702326,152.7777777965821,/
104_226,60421,167722.22224286498,167786.11113176172,167836.1111317679,167913.88890955524,167977.77779845198,2.031402804434085,-26.92857020457826,73.34454450018154,-56.92263995015821,28.296335912635097,1.1487083702867644,-20.63808412719308,58.75145066543574,-12.127929032317322,-16.75856618653272,63.88888889673399,113.888888902904,516.6666667302488,127.77777779352618,191.66666669026017,255.55555558699416,141.66666668409016,/
104_227,60607,168200.00002070155,168313.88890960446,168352.77779849814,168405.5555762824,168644.4444652007,6.00968309356931,-6.479766613113903,1.9381069506069892,-6.417591257919495,67.4919198375258,4.227464211407645,-3.4072954492608583,-6.10283487827509,-0.8915867401152969,69.62815843569541,238.88888891829993,152.7777777965821,291.6666667025711,91.66666667794925,330.5555555962492,444.4444444991532,291.6666667025711,~
104_228,60712,168527.77779851967,168602.7777985289,168644.4444652007,168738.88890965676,168805.55557633165,4.120927861976499,-24.18462089787749,67.4919198375258,-50.47432481006824,33.20256106174513,-7.042120124585182,-24.573525179519148,69.62815843569541,17.665916197727245,-12.68405151336242,66.66666667489335,116.66666668103426,425.0000000522996,136.11111112785875,202.7777778027521,277.777777811978,161.11111113094375,/
104_229,60865,168913.8889096783,169019.44446524687,169069.444465253,169113.88890970292,169472.22224308035,6.198412718420326,-6.003925204569623,10.226771331153705,-5.990539267846602,84.13506740559568,-8.282514553109479,2.235132314392461,11.091730194254296,3.246058496968307,53.1488313604464,358.33333337743534,155.55555557471234,405.5555556054751,94.4444444560504,452.77777783348574,558.3333334020572,402.77777782734483,~
104_230,61011,169322.2222430619,169425.0000208523,169475.00002085848,169575.0000208708,169638.88890976753,8.575343019266997,-34.91744477692335,83.05016247110835,-68.50449833833052,32.40959502540053,3.879111078153738,-22.67398499855256,54.32797386966773,-23.466600338823515,23.13601270971704,63.88888889673399,152.7777777965821,822.222222323413,150.00000001848093,213.88888891521492,316.666666705627,163.8888889090449,/
104_231,61307,170161.11113205404,170227.7777987289,170297.2222431819,170397.2222431942,170463.88890986907,16.02152495633339,-30.93439204825601,52.43143545102058,-54.95656754663915,40.825905412772,9.627359269662897,-18.141581568801733,48.89585122716487,-31.53696931026192,17.41215526110447,66.66666667486425,136.11111112785875,783.3333334297349,169.44444446530542,236.11111114016967,302.7777778150339,166.66666668717517,/
104_232,61589,170938.88890992754,171036.11113216172,171080.55557661163,171166.66668773335,171233.3333544082,2.0455755142423544,-13.665005906837417,54.50439204157302,-62.93169487263387,33.56760700757205,2.2306506219323508,-18.065796776771837,61.11796223399391,-19.378930024356883,-5.936683174536585,66.66666667486425,141.66666668409016,461.1111111678765,130.55555557162734,197.22222224649158,294.44444448067225,152.7777777965821,/
104_233,61755,171452.7777988797,171536.11113222328,171541.6666877795,171541.6666877795,171816.66668781335,10.490125324187725,-5.527521030544056,-5.261709065483828,-5.261709065483828,96.46938192141248,14.823946188981983,-9.057800270848228,-10.120480636230283,-10.120480636230283,26.271770975299432,275.00000003384775,88.888888899819,277.777777811978,5.555555556231411,280.55555559007917,363.88888893366675,275.00000003384775,~
104_234,61855,171702.77779891045,171769.44446558531,171819.44446559148,171869.44446559763,172152.77779896584,6.039367139539619,-46.05999433859068,96.010375899289,-42.37670152662061,7.868388080405278,-0.3960562663694272,-7.407137387764872,15.623444945682978,-8.871904031344837,8.40756971068597,283.3333333682094,116.66666668103426,752.7777778704185,100.00000001231092,383.33333338052034,450.0000000553846,333.33333337435033,f
104_235,62126,172380.55557677164,172519.44446567763,172572.2222434619,172616.6666879118,172683.33335458668,6.517727322441588,-38.80295806912489,109.03982491470886,-59.660801162793554,10.848948399291086,-0.9606674646905192,-9.940276030423025,43.15529021882907,-41.31668670761465,7.91690348689863,66.66666667486425,191.66666669026017,922.2222223357239,97.22222223418066,163.8888889090449,302.7777778150339,111.11111112477374,N
104_236,62458,173297.22224355114,173416.66668801027,173494.44446579763,173536.1111324694,173613.88891025676,8.451241470915061,-38.212751144322,82.06911021898387,-58.20751619084879,7.951011248921594,1.049010751153216,-33.94511442849973,25.73178785170794,-51.54251919456655,4.7510125432763415,77.77777778735617,197.22222224649158,775.0000000953733,119.44444445913541,197.22222224649158,316.666666705627,119.44444445913541,f
104_237,62737,174158.33335476823,174225.0000214431,174269.444465893,174338.888910346,174413.88891035522,9.34472346877194,-28.78110647940857,69.45788283950176,-35.79314364044204,8.313575439222916,1.1032790766943958,-20.8651993195332,51.729389034540176,-16.832018558855403,-1.516068359980968,75.00000000922591,111.11111112477374,841.6666667702666,113.888888902904,188.88888891212991,255.55555558699416,144.44444446222042,f
104_238,63040,174980.55557709164,175052.77779932276,175111.11113266327,175194.44446600683,175258.33335490362,5.908585421377255,-20.89531410441885,66.12333398298249,-59.003456102716,30.45894433225772,-0.1478633876623943,-16.252405118391803,63.33087313477115,-15.88506180190058,-11.60905942730148,63.888888896792196,130.55555557162734,813.8888889890513,141.66666668406106,205.55555558085325,277.777777811978,147.22222224035067,/
104_239,63333,175747.22224385268,175883.33335498054,175925.00002165232,176016.66668833027,176077.7777994489,2.4534381143464805,-23.07307915669258,65.26258838254572,-60.24732934733493,31.03079266798022,1.549711392448145,-21.457060998849727,59.90300512887646,-13.163478824622237,-18.67674640740885,61.111111118632834,177.777777799638,805.5555556547188,133.3333333497285,194.44444446836133,330.5555555962201,152.7777777965821,/
104_240,63623,176577.77779951046,176683.333355079,176730.55557730704,176811.1111328725,176875.00002176926,1.8716209889969704,-21.80753234830848,70.47775777969906,-60.81706220478922,31.80954269950417,1.129786559536894,-19.972971993691097,60.551560345165214,-15.77023085845006,-8.288465586886137,63.88888889676309,152.7777777965821,783.3333334297349,127.77777779349708,191.66666669026017,297.2222222588025,144.44444446222042,/
104_241,63905,177391.6666884995,177463.88891073063,177513.88891073677,177594.44446630223,177661.11113297712,3.419417209643767,-25.09771752418564,68.79905901575499,-54.22584418304049,28.141586771264286,1.2492163415096669,-19.01395490864055,63.21293475297,-25.52570815892592,7.439906279606865,66.66666667489335,122.22222223726567,786.1111112078652,130.55555557159823,197.22222224649158,269.44444447761634,147.22222224035067,/
104_242,64188,178183.3333552636,178250.00002193847,178300.00002194464,178391.6666886226,178461.11113307558,3.252569716768829,-24.46198344833917,69.18395617681486,-55.37272771005208,27.29617086087334,0.7197438820645922,-19.691714488061272,63.172342762885705,-11.39586513215519,-13.543619614741328,69.4444444529945,116.66666668103426,830.5555556577747,141.66666668411926,211.11111113711377,277.777777811978,161.11111113094375,/
104_243,64487,179027.777799812,179083.33335537437,179130.5555776024,179219.44446650223,179288.88891095523,2.2459305058518324,-24.06744670905803,68.33487738505892,-54.71488481741196,27.751779699036945,-0.2463299439699857,-20.1718027459686,61.79905684574712,-14.023028934933624,0.9720642580072952,69.4444444529945,102.77777779041207,827.7777778796735,136.11111112785875,205.55555558085325,261.11111114322557,158.3333333528135,/
104_244,64785,179858.33335546975,179911.11113325405,179958.3333554821,180044.44446660377,180111.11113327864,7.814332559628243,-30.74612186157304,73.33753704846379,-53.79895469694159,25.76380227411321,2.308091114563056,-21.65402685367805,64.45356311870295,-8.815287936373341,-12.446041914925562,66.66666667486425,100.00000001234002,377.77777782428893,133.3333333497285,200.00000002459274,252.777777808893,152.77777779655298,/
104_245,64921,180111.11113327864,180250.00002218463,180336.11113330637,180444.44446665305,180713.8889111306,25.76380227411321,-5.205308748039977,-0.5459981784408772,-3.6813321848831047,117.45420761470211,-12.446041914925562,-6.643210951183765,8.888031707933164,-5.6328283052247805,53.211752243642,269.44444447755814,225.00000002773595,377.7777778242307,194.44444446841953,463.88888894597767,602.7777778519667,377.7777778242307,+
104_246,65057,180547.22224444343,180661.11113334636,180713.8889111306,180761.11113335865,181175.00002229848,12.23353557843913,-45.62351404377314,117.45420761470211,-61.038891917251824,10.851797899041122,2.580025941743122,-13.170233309140489,53.211752243642,-36.058387708061225,-1.1222310840881464,413.88888893983676,166.66666668717517,366.666666711797,100.00000001228182,513.8888889521186,627.7777778550517,461.1111111678765,N
104_247,65189,180858.33335559283,180997.2222444988,181080.5555778424,181138.88891118293,181486.11113344788,10.071043164044724,-6.269205505139725,7.856229762174339,-9.68826822351599,123.81181104101044,-0.918532799363214,-8.31529986594464,11.730235365057268,-0.7245548100718038,57.90903602064791,347.2222222649434,222.2222222495766,405.5555556054751,141.66666668414837,488.8888889490918,627.7777778550517,405.5555556054751,~
104_248,65335,181330.5555778732,181433.3333556636,181486.11113344788,181530.5555778978,181866.66668905027,12.818079006466968,-41.5642873449828,123.81181104101044,-64.91914703443351,14.718315979983911,-2.9306548243616204,-18.02060649782557,57.90903602064791,-47.72467455736956,-11.30762070868437,336.1111111524806,155.55555557468324,880.5555556639738,97.22222223418066,433.33333338666125,536.1111111770733,380.5555556023901,N
104_249,65652,182197.2222446465,182316.66668910565,182366.66668911185,182411.11113356173,182786.1111336079,13.292345094672484,-61.91174775333972,134.37588017254836,-54.76314621331615,14.48371632996428,-17.51258417878685,-19.84724257402354,81.85180567530908,-56.22392639237447,-1.640188752862766,375.0000000461587,169.44444446536363,827.7777778796153,94.44444445607951,469.4444445022382,588.8888889614027,419.44444449603907,f
104_250,65950,182991.66668918877,183083.3333558667,183194.44446699147,183238.88891144135,183333.33335589743,17.62724532104237,-23.3116381293455,66.9900768105538,-39.31867292407666,9.156585986033576,2.3541192531824806,-13.175632541888074,3.888694441509178,-26.19171139647293,0.024957788999387,94.44444445607951,202.7777778026939,708.3333334205381,155.55555557465414,250.00000003073364,341.6666667086538,138.8888889059599,f
104_251,66205,183777.7778003966,183861.1111337402,183902.777800412,183983.33335597743,184041.666689318,4.681706864051886,-26.31960841418966,65.63538052935525,-53.520556184691046,15.872390338777851,18.25069169126849,-9.470828576146438,41.5892191033313,-27.924545018671964,-19.49529832250045,58.333333340560785,125.00000001539593,419.44444449603907,122.22222223723656,180.55555557779735,263.88888892138493,138.888888905989,f
104_252,66356,184208.33335600517,184316.6666893518,184322.22224490804,184369.44446713608,184738.888911626,11.950402888198566,-0.503380276596537,0.7967687741860201,-12.92283287169457,67.96796052395335,0.0102659577474377,1.602550978627318,0.7021220725764235,-2.2728417149833087,54.24343819647214,369.44444448992726,113.8888889028749,422.22222227419843,52.777777784271166,422.22222227419843,530.5555556208419,416.666666717967,+
104_253,66508,184583.3333560513,184686.1111338417,184744.44446718224,184838.88891163832,184905.5555783132,8.046249269588445,-21.729370425856853,63.35362210571582,-46.101086878476345,25.57390630762336,-1.0389577042858833,-17.68491494910242,62.664133937874354,-8.989462711474985,-9.826597647121002,66.66666667486425,161.11111113094375,833.3333334358758,152.7777777966112,219.44444447147544,322.2222222618875,161.11111113094375,/
104_254,66808,185463.88891171524,185536.11113394637,185577.77780061812,185666.666689518,185727.7778006366,6.012930239079774,-23.27205129456868,55.46544220370916,-56.5007680277196,32.04229508304685,0.8743753258951281,-15.062192984076216,55.23249095199076,-11.410920132641229,-25.10714390149394,61.11111111860373,113.8888889028749,658.3333334143681,130.55555557162734,191.66666669023107,263.88888892135583,150.00000001848093,/
104_255,67045,186088.88891179216,186183.3333562482,186236.1111340325,186338.88891182293,186383.33335627284,3.296200407755067,-1.5673112945280872,0.3189906389551822,-22.7467677014925,64.35185033188488,2.392714958982699,0.6918972711163145,0.2398739809822383,-20.43962859399694,57.69092324092507,44.4444444499095,147.22222224032157,150.00000001848093,155.55555557474145,200.00000002465094,294.44444448067225,147.22222224035067,~
104_256,67099,186211.11113402943,186338.88891182293,186386.11113405097,186480.55557850705,186541.66668962565,1.0146867288050088,-22.7467677014925,61.86360064653554,-57.61875100225144,28.881143222103248,-0.7316135615183477,-20.43962859399694,60.44114906993584,-20.021640285606686,-11.502177796826498,61.11111111860373,175.00000002153683,830.5555556578038,141.66666668411926,202.777777802723,330.5555555962201,155.55555557468324,/
104_257,67398,187088.88891191524,187166.66668970257,187216.66668970877,187300.00002305236,187366.6666897272,1.7661096994512135,-24.81490835744276,67.60879686391753,-53.24959242010746,29.93387270987788,9.284710133061589,-12.073274007182384,57.176561180481336,-9.25746361610648,-5.954163667869816,66.66666667483514,127.77777779352618,825.0000001015142,133.3333333497867,200.00000002462184,277.7777778119489,150.00000001842272,/
104_258,67695,187905.55557868243,187991.6666898041,188041.66668981028,188130.5555787101,188200.0000231631,2.721877795982921,-24.99597318061761,63.76993553285636,-51.93537200457013,32.63693310817833,4.885390915023581,-26.883641062433075,92.39621155218394,-2.206835204463536,2.341606433204175,69.4444444529945,136.11111112785875,788.8888889859663,138.8888889060181,208.3333333590126,294.44444448067225,158.3333333528135,/
104_259,67979,188711.11113433712,188783.3333565682,188830.55557879625,188922.2222454742,188983.33335659283,6.065961573616837,-21.71891340792028,71.43318826056328,-58.31689153130458,32.99386218835272,7.566738825844885,-28.85650910134557,84.07091022476928,25.568827748032103,-38.627173174415546,61.111111118632834,119.44444445913541,780.5555556516338,138.888888905989,200.00000002462184,272.2222222557175,152.7777777965821,/
104_260,68260,189427.777801092,189566.666689998,189611.11113444788,189697.2222455696,189761.11113446637,4.638927109500775,-24.93876026565306,74.21087283910363,-61.12187621258273,26.124022363695477,24.969851927253387,-25.2831708830309,60.60120409210796,-16.522531938287923,-25.76198273468318,63.88888889676309,183.3333333558985,811.1111112109502,130.55555557159823,194.44444446836133,333.33333337437944,150.00000001848093,/
104_261,68552,190244.4444678592,190372.2222456527,190422.22224565884,190513.8889123368,190580.55557901165,2.088775421306919,-23.627604567102075,60.60026369334415,-45.825743432568615,29.21797708065476,-9.32996594911182,-23.031043832997344,78.40686470512385,-5.185786107241004,-10.25343363588316,66.66666667483514,177.777777799638,822.222222323413,141.66666668411926,208.3333333589544,336.1111111524515,158.3333333528135,/
104_262,68848,191119.44446796685,191194.44446797608,191244.44446798225,191336.1111346602,191405.5555791132,3.721698218921568,-23.534889202766585,67.7951566682548,-51.43821977810309,30.318663760319367,2.73035307979524,-19.57763201169432,62.964725118295,-6.016501982651334,-9.30484732074015,69.4444444529945,125.00000001539593,786.1111112078652,141.66666668411926,211.11111113711377,286.1111111463397,161.11111113094375,/
104_263,69131,191908.33335695285,192019.4444680776,192030.5555791901,192138.8889125368,192241.6666903272,4.455534832734674,-24.868562334314472,-20.813256764288955,-21.56840509293917,25.34933209017509,19.995132184066915,-40.66635915294401,-52.59076299254591,-6.6377096657676296,5.501487899012549,102.77777779041207,122.22222223726567,513.8888889521186,119.44444445919362,222.2222222496057,333.33333337435033,211.11111113708466,/
104_264,69316,192491.666690358,192541.66669036413,192544.44446814223,192547.2222459204,192911.11113485403,11.433050636535915,-5.271182454686729,-5.481375465184429,-5.599317770984722,72.8590898395872,8.961247467370727,0.3098051598473144,-0.566245856509844,-1.4027094923385732,55.09410891896477,363.88888893363765,52.77777778424206,372.2222222680575,5.555555556260515,369.44444448989816,419.44444449603907,366.666666711797,~
104_265,69450,192766.6666903918,192866.6666904041,192916.6666904103,193005.5555793101,193075.0000237631,7.338285652029759,-25.224855406192557,64.29299468845434,-48.3189787678557,26.26012192687822,3.68279392732196,-17.790646993147075,59.75837603617011,-10.470077953415167,1.3670648994326875,69.4444444529945,150.00000001848093,352.7777778211457,138.8888889060181,208.3333333590126,308.33333337129443,158.3333333528135,/
104_266,69577,193075.0000237631,193197.2222460004,193269.44446823144,193288.88891267832,193622.22224605267,26.26012192687822,-3.177562851888379,3.1421777038005283,-0.2857344701178402,119.95585661951174,1.3670648994326875,-7.600798065230252,5.602131076719245,13.722297687589649,14.95643843255149,333.33333337435033,194.44444446833222,352.77777782123303,91.66666667792015,425.0000000522705,547.2222222895653,352.77777782123303,+
104_267,69704,193497.22224603727,193569.4444682684,193622.22224605267,193672.22224605884,193738.8889127337,7.276850534345128,-49.138754650684966,119.95585661951174,-58.73159269324861,6.843309887355975,1.4788175215310668,1.870246758770622,14.95643843255149,-10.674574829572284,2.967599940172314,66.66666667486425,125.00000001539593,805.5555556546897,102.77777779044118,169.44444446530542,241.66666669643018,116.66666668103426,N
104_268,69994,194261.11113502015,194375.0000239231,194427.77780170736,194472.2222461573,194536.11113505403,7.883968450105626,-44.71158184984116,114.16174353456957,-60.66248165787019,8.021602331779691,0.2907698629002492,-14.064979009516083,57.464034025049486,-39.76992723362539,5.471616862153728,63.88888889673399,166.66666668720427,791.6666667641257,97.22222223420977,161.11111113094375,275.00000003387686,108.33333334667259,N
104_269,70279,195075.0000240093,195166.6666906872,195219.44446847148,195269.4444684776,195555.555579624,6.015832127992927,-48.485225959276974,103.15685553819564,-49.22103129141718,5.636685487164606,4.554663837506337,-14.875769339339348,29.766507690905403,-9.20082328855593,8.69729703725606,286.1111111463979,144.4444444621913,786.1111112078361,102.77777779038297,388.88888893678086,480.555555614701,336.1111111525097,f
104_270,70562,195880.55557966395,195955.5555796732,196005.55557967932,196050.0000241293,196119.44446858225,8.16007170323344,-60.51223871289348,159.87647434271432,-70.81870648936018,8.6969389651993,1.3739236776010917,-19.87165843490133,76.11477919667368,-39.32471011545675,5.786752030062278,69.4444444529654,125.00000001536682,847.2222223265271,94.44444445607951,163.8888889090449,238.88888891829993,113.8888889029331,f
104_271,70867,196686.11113531864,196805.5555797778,196852.77780200585,196900.00002423383,197202.7778020489,7.237804835487497,-66.39420564753996,154.0096514967546,-70.30350416380826,6.65014354877454,1.773699849883758,-25.21867021056833,84.99219932701993,-39.03973714142423,5.936237937928598,302.777777815063,166.66666668720427,841.6666667702375,94.4444444560213,397.2222222710843,516.6666667302488,350.00000004304457,f
104_272,71170,197536.11113542327,197641.6666909918,197694.44446877608,197744.44446878225,198030.55557992856,8.804365865840358,-61.13805984648319,122.82201992792372,-65.90718414518214,8.538723348684421,4.026797433485329,-36.06034918385166,87.44995257303377,-43.41646673773036,8.605619268953289,286.1111111463106,158.3333333528135,838.8888889921654,102.77777779044118,388.88888893675175,494.4444445052941,336.1111111524806,f
104_273,71472,198388.888913306,198458.333357759,198533.33335776825,198575.00002444003,198886.11113558945,8.720131889438738,-46.13960869187679,96.88388931376744,-64.03524326826901,9.582640693909848,3.3164882785453877,-32.31057725351181,25.23784830150857,-38.674692707306725,17.525545078325536,311.1111111494247,144.44444446224952,827.7777778796444,116.66666668103426,427.77777783045894,497.22222228345345,352.7777778212039,f
104_274,71770,199191.6666911826,199294.444468973,199361.1111356479,199402.77780231967,199480.55558010703,8.682282471974329,-36.78297950985521,95.7088560565502,-57.31223194890824,12.258487581423394,-5.043180946127936,1.6994730707299897,27.815154413283537,-36.81676424686309,4.872816968308414,77.77777778735617,169.44444446530542,841.6666667702375,108.33333334667259,186.11111113402876,288.88888892444083,119.44444445913541,f
104_275,72073,200038.8889135091,200113.8889135183,200202.77780241813,200244.44446908997,200319.4444690992,11.360512278023943,-29.731084324773093,77.44312893819573,-48.20900552876463,6.272151309305894,4.762361781064608,-31.390785519345496,19.91301368571533,-39.92295013538136,2.374166138321112,75.00000000922591,163.8888889090449,797.2222223203571,130.55555557165644,205.55555558088236,280.55555559010827,116.66666668106336,f
104_276,72360,200838.88891360757,200894.44446916995,201000.0000247385,201041.66669141027,201144.4444692007,10.321128551659257,-21.3362325402527,57.805483723353085,-37.41320513291566,7.323138782316559,1.2112932321082714,-21.51738773577749,17.26762759534215,-30.59383567581046,0.6362864257679988,102.77777779044118,161.11111113091465,763.8888889829104,147.22222224032157,250.00000003076275,305.55555559313507,144.44444446222042,f
104_277,72635,201608.3333581467,201675.00002482155,201763.8889137214,201805.5555803932,202108.33335820824,7.80010136161804,-24.812050631747866,56.73318537026103,-37.04879162525201,7.304318963075767,1.5824377286416256,-22.613449025205576,11.955006653085832,-30.41816010656433,6.184296385949631,302.7777778150339,155.55555557471234,830.5555556578038,130.55555557165644,433.33333338669036,500.0000000615546,344.44444448684226,f
104_278,72934,202422.2222471357,202483.3333582544,202594.4444693792,202636.11113605092,202719.4444693945,9.081441939006371,-23.06942502545996,58.934397910905744,-41.41868355782128,9.342280260823022,2.233742457360462,-20.95045946357428,11.620359654408514,-35.97575477320296,1.2971747154290267,83.33333334358758,172.2222222434939,825.0000001015142,152.77777779652388,236.11111114011146,297.2222222588025,125.00000001530861,f
104_279,73231,203233.3333583467,203322.2222472465,203419.44446948072,203461.1111361525,203755.5555806332,7.683164330191277,-22.167987972215546,72.37424985570392,-44.13894531019719,11.076265610631513,0.8239493102902347,-31.28864275878874,2.725342168856169,-37.576951776328,-1.7143544444192242,294.44444448070135,186.11111113402876,822.222222323413,138.888888905989,433.33333338669036,522.2222222865093,336.1111111524806,f
104_280,73527,204069.4444695607,204144.44446956995,204241.66669180413,204286.11113625404,204577.7778029566,9.570562333917223,-25.421503141397704,63.29609301063675,-40.92407059999184,4.860019927246433,2.891852458034717,-27.47670547609245,7.949735470250312,-29.024683601522,9.376067907581453,291.6666667025711,172.22222224343568,841.6666667702666,141.66666668409016,433.33333338666125,508.33333339591627,336.1111111524806,f
104_281,73830,204916.6666918872,204977.77780300585,205083.3333585744,205122.22224746805,205183.33335858668,7.875215310828481,-21.10890043301628,43.569033234168,-32.44076828997338,3.7165462675049215,0.5649179134239102,-20.55453865997048,1.5602280470805974,-31.593358786734704,7.619531104148095,61.111111118632834,166.66666668720427,805.5555556546897,144.4444444621913,205.55555558082415,266.6666666994861,100.00000001228182,f
104_282,74120,205725.00002532,205802.77780310737,205888.8889142291,205927.7778031228,206236.11113649403,8.418686097686377,-32.56681454727656,66.50362998189419,-46.42363710201736,6.846008244807976,2.306468343595337,-27.85891738523524,3.585852492749084,-32.33950981543087,6.406194446941174,308.3333333712362,163.888888909074,802.7777778765885,125.00000001542503,433.33333338666125,511.1111111740174,347.2222222649434,f
