Index,Peak indices,P Peak Time,Q Peak Time,R Peak Time,S Peak Time,T Peak Time,P_ml2_Ampli,Q_ml2_Ampli,R_ml2_Ampli,S_ml2_Ampli,T_ml2_Ampli,P_v5_Ampli,Q_v5_Ampli,R_v5_Ampli,S_v5_Ampli,T_v5_Ampli,diff_T_S,diff_R_P,diff_R_next_R,diff_RQ_SR,diff_T_Q,diff_T_P,diff_T_R,label
105_1,197,0.0,497.2222222834188,547.2222222895728,602.7777778519659,813.8888889890599,0.0,-69.33286529145543,154.88221170177877,-70.36023746195437,16.492598484649367,0.0,16.94614152219401,-38.7623858727911,18.725336694291705,-0.752798076480343,211.11111113709399,547.2222222895728,727.7777778673506,105.5555555685471,316.6666667056411,813.8888889890599,266.6666666994871,N
105_2,459,1125.0000001384617,1227.777777928889,1275.0000001569233,1330.5555557193163,1536.1111113001712,23.97758865604217,-68.20242381477564,150.9881733480302,-68.05198219171267,16.11938582546982,-2.9051532199450785,15.861511569883564,-37.50162365789713,18.173744251149536,-0.7181021941826091,205.55555558085484,150.0000000184616,691.6666667517948,102.77777779042731,308.33333337128215,411.11111116170946,261.11111114324785,N
105_3,708,1819.4444446683765,1919.444444680684,1966.666666908718,2022.2222224711115,2241.6666669425645,27.04767544711949,-67.4577974590269,154.67038195177545,-70.47721417850478,14.624865249534585,-0.221730782373308,14.58536250158287,-36.04748922834364,18.1288700986006,-1.388439485814661,219.44444447145293,147.22222224034158,713.8888889767522,102.77777779042754,322.22222226188046,422.22222227418797,275.0000000338464,N
105_4,965,2536.111111423248,2630.5555558793167,2680.5555558854703,2733.333333669744,2947.2222225849578,24.96906758625597,-66.03616702178108,152.8673802198462,-72.3326928374588,16.466785671680586,-1.4850579925874536,15.433826386994694,-35.22909386520061,18.97053883445238,0.2566575117754695,213.88888891521356,144.44444446222224,713.8888889767522,102.77777779042754,316.6666667056411,411.1111111617097,266.66666669948745,N
105_5,1222,3250.0000004000003,3344.444444856069,3394.4444448622226,3447.222222646496,3652.777778227351,26.46008586378148,-65.95121235792908,154.44365240351314,-71.17737619645779,17.18475841570291,-2.5397796778558828,18.197416120875243,-37.65119710934082,19.486533453539423,-0.2031288915342132,205.55555558085507,144.44444446222224,713.8888889767522,102.77777779042708,308.33333337128215,402.77777782735075,258.3333333651285,N
105_6,1479,3958.3333338205134,4058.333333832821,4108.333333838975,4163.888889401368,4372.222222760342,24.678297803891848,-67.04967568245084,152.48438471153125,-70.10714354589425,14.862823863820662,-1.873176903193392,15.272858977046235,-34.04981593613607,17.076535988363062,-0.2644606693600659,208.33333335897441,150.00000001846138,727.7777778673508,105.55555556854688,313.8888889275213,413.88888893982903,263.88888892136765,N
105_7,1741,4683.333333909744,4788.888889478291,4836.111111706326,4891.666667268719,5116.666667296411,24.535256406361547,-66.3817662194159,149.01079178625588,-67.93810294662053,15.17844065840078,-1.3278213262891063,15.060372370346055,-36.61106672155084,19.019870891539156,-0.4232259214704866,225.0000000276923,152.77777779658118,761.1111112047865,102.77777779042754,327.77777781811983,433.3333333866667,280.55555559008553,N
105_8,2015,5441.666667336411,5550.000000683078,5597.222222911112,5655.555556251625,5880.555556279317,23.397273491927987,-68.36184497331783,150.88529488987604,-71.23825441873093,14.351088595828836,-2.126903640855602,16.483200074248025,-39.1065075484948,18.98360095268066,-0.1758122451576791,225.0000000276923,155.55555557470143,755.5555556485469,105.55555556854688,330.5555555962392,438.8888889429063,283.3333333682049,N
105_9,2287,6205.555556319317,6302.777778553505,6352.777778559659,6408.333334122052,6622.222223037265,24.130093378003277,-69.97475301857841,160.5580513271892,-72.26819132513708,16.886285938594643,-2.595687810655331,17.623539267944153,-38.64292298997385,18.98873469337528,0.5622493119301122,213.8888889152131,147.2222222403425,730.5555556454701,105.55555556854688,319.44444448376,416.66666671794883,269.44444447760634,N
105_10,2550,6933.333334186667,7036.111111977095,7083.333334205129,7138.888889767522,7347.222223126497,24.083653825078773,-68.24291516501955,156.64956499602008,-72.10578857382191,15.305200404740372,-1.497828830085334,15.025847505248846,-35.87809182472632,17.451696449695724,-1.2827602243536176,208.33333335897441,150.00000001846183,702.777777864273,102.77777779042754,311.11111114940195,413.8888889398295,263.88888892136765,N
105_11,2803,7641.66666760718,7736.111112063249,7786.111112069402,7838.888889853676,8047.22222321265,26.112192378221117,-65.40787813728029,149.28298458643047,-67.56850532436643,16.459805942317093,-1.8645591436509368,16.280598227754716,-36.26943999527222,19.292631429441546,0.3181147312030753,208.3333333589735,144.44444446222224,691.6666667517948,102.77777779042754,311.11111114940104,405.55555560546964,261.1111111432474,N
105_12,3052,8333.333334358975,8427.777778815043,8477.777778821197,8533.333334383591,8741.666667742566,25.907845337453008,-67.32172066182429,157.17506498330687,-71.92799646781164,14.88365624444307,-1.982607869606567,18.36786475246212,-40.6622839341465,19.14290790927077,-1.0877416936006252,208.33333335897441,144.44444446222224,697.2222223080353,105.55555556854779,313.8888889275222,408.3333333835908,263.88888892136856,N
105_13,3303,9036.111112223249,9125.00000112308,9175.000001129232,9227.777778913503,9441.666667828718,27.45647439528135,-64.46502157313805,148.74035673914975,-67.36573726528674,14.176827945036315,-2.722419357476882,15.425228786335635,-35.61806010871224,18.641254975602752,-0.0429638006448958,213.88888891521492,138.88888890598355,722.2222223111112,102.77777779042299,316.6666667056379,405.55555560546964,266.6666666994861,N
105_14,3563,9750.000001200002,9847.22222343419,9897.222223440343,9952.777779002736,10175.000001252309,25.664337717864807,-65.31155736707272,150.3032368411842,-68.44060892226943,14.792914849767424,-0.6165068540317257,15.173757507162204,-34.52703656901128,17.10073602306154,0.0524972020843536,222.22222224957295,147.22222224034158,755.5555556485469,105.55555556854597,327.7777778181189,425.00000005230686,277.7777778119653,N
105_15,3835,10497.222223514187,10605.555556860856,10652.77777908889,10711.111112429402,10933.333334678977,23.573506563206934,-68.05735963425028,149.91387032127676,-69.23861394892305,15.549801652417472,-2.4002127669635747,16.141764892674725,-38.91718241288039,19.06942352698458,-0.9676061722346716,222.22222224957477,155.55555557470325,741.6666667579502,105.55555556854597,327.77777781812074,436.1111111647897,280.55555559008644,N
105_16,4102,11238.888890272136,11344.444445840683,11394.44444584684,11450.000001409231,11680.555556993164,23.241545867417404,-68.16908144314705,152.71732597826144,-69.85928850271803,16.54210319896498,-0.9317454111055952,17.952598034405653,-38.21724468236017,18.8692790793532,-0.8375906804058331,230.5555555839328,155.55555557470507,747.2222223141871,105.55555556854779,336.1111111524806,441.6666667210284,286.1111111463233,N
105_17,4371,11988.888890364446,12091.666668154872,12141.666668161028,12197.22222372342,12411.111112638631,24.026860000809982,-67.05584774505479,152.81794899410687,-71.54939880948196,15.570103441509245,-0.7832730269485364,13.272523550173725,-31.228578326021918,15.733642586591516,-1.353865925975249,213.88888891521128,152.7777777965821,733.3333334235886,105.55555556854779,319.44444448375907,422.2222222741857,269.4444444776036,N
105_18,4635,12727.777779344276,12827.777779356582,12875.000001584616,12933.33333492513,13150.000001618462,24.65829696926901,-65.16392984482798,147.12106266278832,-66.92204875414876,15.797802094444464,-3.1860327740489898,15.53946281087069,-38.99575130577831,17.680157567383734,-1.6319021131228082,216.66666669333244,147.22222224033976,738.8888889798272,105.55555556854779,322.22222226188023,422.2222222741857,275.00000003384594,N
105_19,4901,13461.111112767863,13566.666668336413,13613.888890564443,13669.44444612684,13872.222223929572,23.773767070385247,-64.84375748035667,147.3231231950447,-65.53345665656148,16.644204999785824,-1.680939910055374,13.693643508320736,-34.55993026981521,17.31119388674919,0.1115833836594735,202.7777778027321,152.77777779658027,702.7777778642758,102.77777779042663,305.5555555931587,411.1111111617083,258.33333336512806,N
105_20,5154,14172.222223966495,14269.444446200683,14316.66666842872,14372.222223991112,14588.888890684446,24.76177599090832,-64.28506499930707,147.97026309700874,-68.28980190022702,14.929775285936842,-1.096106929624417,15.415840902157932,-35.96798047642497,17.62276301494306,-1.0685485386958409,216.66666669333426,144.44444446222406,702.7777778642721,102.77777779042844,319.4444444837627,416.66666671795065,272.2222222557266,N
105_21,5407,14880.55555738701,14972.22222406496,15019.444446292991,15075.000001855386,15447.22222412342,26.54329909865737,-62.82911495137403,146.55071662430473,-66.15380680613492,211.5173545668964,-1.1715819022658012,14.96589029961223,-35.92449794980587,16.681773804481754,58.183874772545,372.2222222680339,138.88888890598173,427.777777830428,102.7777777904248,475.0000000584587,566.6666667364098,427.777777830428,N
105_22,5561,15280.55555743624,15391.666668561027,15447.22222412342,15494.444446351456,15577.777779695043,16.23198919929704,-89.20045769317402,211.5173545668964,-106.08674784639392,13.362182199474647,-3.36054321571605,-24.03321673420717,58.183874772545,-10.901901625388156,0.0079885399959192,83.33333334358758,166.6666666871788,1005.5555556793188,102.77777779042844,186.11111113401603,297.2222222588025,130.5555555716237,V
105_23,5923,16305.555557562397,16402.777779796583,16452.77777980274,16508.33333536513,16733.33333539282,23.106675762481128,-65.8358238122085,152.0263012909754,-71.05543122129654,17.168949159240498,-2.562982970500618,17.701126903763285,-39.35684434363334,19.408644992133414,1.1435839296966237,225.0000000276923,147.22222224034158,755.5555556485451,105.55555556854597,330.55555559623826,427.7777778304244,280.5555555900828,N
105_24,6195,17050.000002098463,17161.11111322325,17208.333335451283,17263.888891013677,17494.44444659761,23.51758474253341,-67.9143981769159,153.27368632915736,-68.76289819304955,13.859148516392956,-1.7619746850570923,13.405801741263046,-32.829457299650294,17.871899605911217,-1.103179895281027,230.55555558393098,158.33333335282077,758.3333334266681,102.77777779042663,333.3333333743576,444.4444444991459,286.11111114632513,N
105_25,6468,17813.88889108137,17919.444446649915,17966.66666887795,18025.000002218465,18255.5555578024,24.29072010369768,-70.06609695978835,152.86942464824784,-70.14987269165799,15.540013622012214,-1.6512967079697831,16.937516372283536,-40.15520572339949,19.611427218145607,0.0631132272025657,230.55555558393462,152.7777777965821,744.4444445360677,105.55555556854961,336.1111111524842,441.6666667210302,288.8888889244481,N
105_26,6736,18563.88889117368,18663.888891185987,18711.11111341402,18769.444446754533,18983.333335669744,24.605050881279155,-66.7888104192273,151.88381837609884,-68.55594279076153,15.31981126763187,-2.172318892356331,15.172537364478492,-36.96873138154688,16.339935776662003,0.0734916420652895,213.88888891521128,147.22222224033976,722.2222223111094,105.55555556854597,319.44444448375725,419.44444449606453,272.2222222557248,N
105_27,6996,19291.666669041027,19386.111113497096,19433.33333572513,19486.111113509403,19688.888891312137,26.088796669198853,-63.10853995327776,147.80552537715687,-67.62153822371582,16.68825699305284,-1.313025317842679,13.239156372396176,-33.08379860448421,17.181122044543656,-1.004592089708684,202.7777778027339,141.66666668410107,694.4444445299159,100.00000001230728,302.7777778150412,397.2222222711098,255.5555555870087,N
105_28,7246,19983.333335792824,20080.55555802701,20127.777780255044,20183.33333581744,20388.88889139829,26.529938104185703,-65.53682125964804,150.95405646375443,-68.45083004011259,15.84895562585383,-1.4662416638410465,16.22933184184328,-40.64791490770692,20.49640558529032,-0.258824724142758,205.5555555808496,144.44444446222042,722.2222223111166,102.77777779043026,308.3333333712799,405.5555556054642,261.11111114324376,N
105_29,7506,20702.77778032581,20800.00000256,20850.00000256616,20905.555558128548,21125.0000026,25.628150139088724,-66.7049048979557,154.35653789476916,-70.6226228517499,15.567698242248593,-0.983787204054844,16.25066976621843,-36.40363874362212,18.107958452895105,-0.5662129816376545,219.4444444714536,147.22222224035067,725.0000000892214,105.55555556854961,325.0000000400032,422.22222227419115,275.0000000338405,N
105_30,7767,21430.55555819317,21525.000002649234,21575.000002655383,21627.77778043966,22005.55555826393,27.42701969553201,-65.94462602612913,151.7497118610566,-68.63522335321444,211.63327561018923,-1.1160137744179013,15.019686390421322,-35.610904033838565,19.642328852560063,53.69398978498049,377.77777782427074,144.44444446221314,430.5555556085492,102.77777779042663,480.55555561469737,575.0000000707623,430.5555556085492,N
105_31,7922,21852.777780467357,21950.00000270154,22005.55555826393,22052.777780491968,22288.888891632138,18.090043307504125,-89.90460209723423,211.63327561018923,-106.70714298303967,14.083983904364766,-2.771805027596029,-22.395370330333503,53.69398978498049,-6.419630470244282,1.9700279343106777,236.11111114016967,152.7777777965748,1022.2222223480348,102.77777779042663,338.8888889305963,436.1111111647806,283.3333333682058,V
105_32,8290,22883.333336149743,22980.55555838393,23027.777780611967,23086.11111395248,23316.66666953641,24.836591874216108,-68.49226386349115,152.40225445701796,-69.86795168604856,16.350244392250712,-0.973976624318913,18.297397760855738,-42.09427500739026,19.449946597615305,1.5376823640965005,230.55555558393098,144.44444446222406,761.1111112047911,105.55555556854961,336.1111111524806,433.3333333866685,288.8888889244445,N
105_33,8564,23630.555558463933,23738.8888918106,23788.888891816758,23844.44444737915,24072.22222518496,24.53337886942492,-68.51955403503597,154.3011063045797,-69.9134784676694,13.663170213978663,-1.5486952344865337,11.08927666255822,-28.038163615512733,16.350868296181254,-0.2854542912283608,227.77777780581164,158.3333333528244,736.1111112017061,105.55555556854961,333.33333337436125,441.66666672102656,283.33333336820215,N
105_34,8829,24377.777780778124,24477.77778079043,24525.000003018464,24583.333336358977,24811.11111416479,25.22297012257592,-63.66432701576301,143.97228940318277,-64.96179828048587,13.812689017931572,-1.3594511825181623,12.232874454083111,-33.327342080290514,16.698379638934313,-0.3918978511214871,227.77777780581164,147.22222224033976,733.3333334235867,105.55555556854597,333.3333333743576,433.3333333866649,286.11111114632513,N
105_35,9093,25111.11111420171,25211.11111421402,25258.33333644205,25313.88889200445,25530.55555869778,26.777364209741812,-68.18470041256256,149.51248315647547,-69.06779647010629,12.898614739049297,-1.1053173002819396,14.854375181710369,-36.99582951065434,19.558728499783,-0.0748900401677526,216.66666669333063,147.22222224033976,713.888888976755,102.77777779042663,319.44444448375725,419.4444444960682,272.2222222557284,N
105_36,9350,25830.555558734704,25922.222225412654,25972.222225418805,26025.00000320308,26230.555558783934,28.68327000087119,-69.0513922664027,158.82351495580366,-73.61080225501465,17.581806182843955,-0.5922702319435119,17.31548449885249,-38.25493511813308,21.291187691444243,-4.189879292014918,205.55555558085325,141.66666668410107,694.4444445299159,102.77777779042663,308.3333333712799,400.00000004922913,258.33333336512806,N
105_37,9600,26522.222225486497,26619.444447720685,26666.66666994872,26722.22222551112,26930.555558870088,25.19209814148076,-65.59739313696312,151.51133142402668,-68.45782654720828,9.577287838228903,-0.6424217307161104,10.890948889709572,-27.95662436977108,15.5180424303662,-1.655739451456069,208.33333335896896,144.44444446222406,680.5555556393192,102.7777777904339,311.11111114940286,408.3333333835908,263.88888892136674,N
105_38,9845,27208.33333668205,27300.000003360004,27347.22222558804,27402.77778115043,27477.77778115966,29.06625392258045,-62.97245230604851,143.5617150130676,-62.37670599496609,12.62892775818053,0.3504851656408771,5.657906724686823,-18.11996944417352,10.475160517784351,-2.324443468346403,75.00000000922955,138.888888905989,722.2222223111094,102.77777779042663,177.77777779965618,269.44444447760907,130.55555557162006,N
105_39,10105,27916.666670102568,28022.222225671117,28069.44444789915,28127.77778123966,28355.55555904547,25.27925379397763,-69.3280501951693,154.33116210339622,-71.26847739354564,14.222144784125192,0.7203744984730858,14.585334501509038,-37.05260754313424,17.922360504034806,-0.9641698750833788,227.77777780581164,152.7777777965821,763.8888889829032,105.55555556854233,333.33333337435397,438.8888889429036,286.1111111463215,N
105_40,10380,28677.777781307355,28786.11111465402,28833.333336882053,28888.888892444447,29102.777781359662,23.907555508679778,-69.29697456593202,159.29370865044064,-72.26657447123381,15.377026841206485,-1.4648983054928482,14.293199483323978,-36.19551625644922,18.390711961358363,0.0715257271476501,213.88888891521492,155.5555555746978,736.1111112017097,102.77777779042663,316.66666670564155,425.00000005230686,269.44444447760907,N
105_41,10645,29416.666670287184,29519.44444807761,29569.444448083763,29625.00000364616,29841.66667033949,22.58393372773884,-67.66925638215778,151.649177567446,-69.50210892519635,15.912579618062066,-1.296613977127847,12.774403972037751,-28.33402844958847,15.221959664305173,-0.2989224453399635,216.66666669333063,152.77777779657845,730.5555556454747,105.55555556854961,322.22222226188023,425.00000005230686,272.2222222557284,N
105_42,10908,30150.00000371077,30250.00000372308,30300.000003729238,30355.555559291628,30575.00000376308,24.45512260589083,-66.41642274736424,151.2386611705298,-69.35177722411919,14.458617427913223,-1.5239724965935462,15.946265887804085,-35.56658294901846,17.913834445310865,0.3133259878803704,219.4444444714536,150.00000001846638,722.2222223111094,105.55555556854961,325.0000000400032,425.0000000523105,275.0000000338441,N
105_43,11168,30880.55555935624,30975.00000381231,31022.222226040347,31077.777781602737,31297.22222607419,27.259362676464217,-66.7451483309706,154.1467141231979,-69.47022275094443,15.004281273623317,0.3030426996931105,12.531619467024994,-32.028744428251734,15.852251633884594,-0.4317760697036065,219.4444444714536,141.66666668410835,711.111111198632,102.77777779042663,322.22222226188023,416.66666671795247,275.0000000338441,N
105_44,11424,31597.222226111116,31683.333337232823,31733.33333723898,31786.11111502325,31988.888892825988,26.9835382455457,-65.79245353616183,153.50154716626272,-68.39361563906752,16.248769027248358,-0.7000628776642588,12.675277487716668,-30.30932853017193,16.33609540382115,0.1542435405145793,202.77777780273755,136.1111111278624,700.0000000861546,102.77777779042663,305.5555555931642,391.6666667148711,255.5555555870087,N
105_45,11676,32288.88889286291,32383.333337318974,32433.333337325133,32486.111115109405,32686.11111513402,25.54680391208028,-68.13000744805271,156.38518636869216,-73.07869120696951,16.0493447099145,-2.3284483775526503,16.292115447463352,-34.92278760156562,18.97882912894108,0.1720533793983014,200.00000002461456,144.44444446222406,708.3333334205126,102.77777779043026,302.77777781504483,397.2222222711098,252.77777780888573,N
105_46,11931,32994.4444485053,33091.66667073949,33141.666670745646,33197.22222630804,33413.88889300137,25.664992722621925,-67.29938464561022,154.84665736558262,-71.4689083885157,16.942933460445435,-1.090724604473173,14.980861467426973,-33.17256981763808,17.06631051393488,-0.2741750231394022,216.66666669333063,147.2222222403434,711.111111198632,105.55555556854961,322.22222226188023,419.4444444960682,272.2222222557248,N
105_47,12187,33705.555559703935,33802.77778193812,33852.77778194428,33908.33333750667,34127.777781978126,25.71955931618405,-66.84788339730869,151.35748619816425,-69.09332752509876,14.147308440270631,-1.073654232850066,13.305573858803797,-29.403597616668048,15.495090177969544,-0.0759724217581607,219.4444444714536,147.2222222403434,727.777777867348,105.55555556854961,325.0000000400032,422.22222227419115,275.00000003384775,N
105_48,12449,34438.88889312753,34533.333337583594,34580.555559811626,34636.11111537402,35050.00000431385,25.88517593452441,-66.86587253676667,146.96720024237482,-65.0339985460329,100.69785294712284,-1.4953410916327114,14.086541560550836,-32.67066914067368,16.443590345986102,-41.60279410313697,413.8888889398295,141.66666668409744,488.8888889490627,102.77777779042663,516.6666667302561,611.1111111863211,469.44444450222363,N
105_49,12625,34875.00000429231,35013.888893198295,35069.44444876069,35116.66667098872,35361.11111546325,10.215578692061024,-87.9417926533877,211.73053484434968,-106.78963715783532,11.12860605360721,-3.412851492201652,-28.30226481963508,57.93430401784961,-2.1874163907083206,1.6946127231352002,244.44444447453134,194.44444446837588,1005.5555556793115,102.77777779042663,347.22222226495796,486.1111111709397,291.6666667025638,V
105_50,12987,35922.222226643426,36027.77778221197,36075.00000444,36130.5555600024,36372.22222669881,24.15501315850043,-69.20301437233552,156.33321186550128,-71.77907781840652,19.0659511902355,-0.3192471901024428,17.31793643015161,-39.65814349403743,20.03139273271922,2.076472591325176,241.66666669640836,152.7777777965748,736.1111112017097,102.7777777904339,344.44444448684226,450.0000000553846,297.2222222588098,N
105_51,13252,36663.888893401374,36763.88889341368,36811.11111564171,36866.6666712041,37083.33333789744,27.51749139359848,-67.81629515364733,155.69872905538145,-72.00736807458404,15.094875111461562,0.8940346601326599,13.323623464870822,-36.75861399369694,19.637789874343188,-1.8089982161332,216.66666669334518,147.22222224033612,708.3333334205236,102.77777779041935,319.4444444837645,419.4444444960682,272.22222225573205,N
105_52,13507,37375.000004600006,37472.222226834194,37519.44444906223,37575.00000462462,37775.00000464924,28.742215494095007,-65.53295298566776,155.10665005268478,-69.41677403663137,18.29624864131561,1.5805638057592422,10.277787838524135,-34.135638588075,17.426227341578716,-0.6360181816824222,200.00000002462184,144.4444444622277,688.88888897367,102.77777779042663,302.77777781504847,400.0000000492364,255.5555555870087,N
105_53,13755,38063.88889357368,38161.11111580786,38208.3333380359,38263.8888935983,38463.88889362291,28.28900855983048,-68.31137462030182,154.08337898902292,-71.22708784769533,14.514014201405631,0.999275329658066,10.993785041692284,-34.045078323902914,17.41490483952818,-0.3668412109179648,200.00000002461456,144.44444446222042,697.2222223080316,102.77777779044118,302.77777781505574,400.00000004922913,255.5555555870087,N
105_54,14006,38761.11111588172,38858.3333381159,38905.555560343935,38961.11111590633,39161.111115930944,26.6371034619534,-68.26483675574342,151.48169315283133,-69.00055953737773,16.7593178853179,-0.0508832266920444,7.942154242052891,-21.89577926290816,13.3192455306963,0.7852126047468273,200.00000002461456,144.44444446221314,686.1111111955543,102.77777779042663,302.7777778150412,400.00000004922185,255.5555555870087,N
105_55,14253,39444.444449299146,39544.44444931146,39591.66667153949,39650.00000488001,39872.222227129576,33.28484194381594,-65.57290650743376,145.17252176918566,-65.68246296895018,13.991264831281097,0.4610262510284073,12.703826768960106,-31.44461036087887,15.316129590476876,-0.3561152430432317,222.2222222495693,147.2222222403434,733.333333423594,105.55555556854961,327.7777778181189,427.77777783042984,280.55555559008644,N
105_56,14517,40172.2222271665,40277.77778273504,40325.00000496308,40380.55556052548,40600.00000499693,25.563744254385856,-67.57878525836918,150.7350456218083,-67.216068864362,13.6378390908577,-0.7239515118253638,12.43974250368729,-37.91601916711877,21.02589344209718,-1.749554972145306,219.4444444714536,152.7777777965821,747.2222223141871,102.77777779044118,322.2222222618948,427.77777783042984,275.00000003384775,N
105_57,14786,40927.77778281505,41025.00000504924,41072.22222727727,41130.55556061778,41200.000005070775,24.39649218041641,-71.34970030320547,160.56058706206025,-77.45048046643402,14.691778699441237,-1.4618425701345863,10.080640915758469,-26.46344268016204,14.830692869717746,-3.548155990101745,69.4444444529945,144.44444446222042,741.6666667579484,105.55555556854233,175.00000002153683,272.2222222557248,127.77777779350436,N
105_58,15053,41663.88889401676,41763.88889402906,41813.88889403522,41869.44444959761,42088.88889406907,24.345887461549147,-70.94342046693258,154.82636866613717,-67.14505595605584,18.756558795713534,-0.5984774710277535,10.983894262884627,-23.622812490920207,12.565006208314076,-0.4743130296374294,219.4444444714536,150.0000000184591,716.6666667548707,105.55555556854961,325.0000000400032,425.00000005230686,275.00000003384775,N
105_59,15311,42386.11111632787,42483.33333856206,42530.55556079009,42586.11111635248,42805.55556082394,23.804501488260275,-66.52594097999082,150.2253061555857,-66.55716206521687,14.265574718833909,-0.3749427543188067,12.732652412835074,-30.127201046688626,15.173332728060428,-0.9043355291092224,219.44444447146088,144.44444446222042,733.3333334235867,102.77777779041935,322.22222226188023,419.4444444960682,275.00000003384775,N
105_60,15575,43113.88889419522,43213.88889420753,43263.88889421368,43319.44444977607,43536.11111646941,24.918176980052767,-68.82407677689936,152.2568323969753,-69.76317557480826,15.30724165975043,-1.2018747606677145,16.341560985305723,-35.71164678226308,19.109466732106306,-0.8558648468660663,216.6666666933379,150.0000000184591,719.4444445329937,105.55555556854233,322.22222226188023,422.22222227419115,272.22222225573205,N
105_61,15834,43838.88889428445,43933.33333874052,43983.33333874667,44036.11111653095,44238.88889433368,26.32131404204056,-69.30671104972023,160.92977816137696,-72.95255733562719,14.94491065988158,-0.840532875319713,16.313670893604396,-33.79316632979282,17.738379930294006,-0.5018364664550455,202.77777780273027,144.44444446222042,694.4444445299159,102.77777779042663,305.5555555931569,400.00000004922913,255.5555555870087,N
105_62,16084,44530.55556103624,44627.77778327043,44677.777783276586,44730.55556106086,44938.88889441983,24.94977899437173,-63.94179209168977,151.814417487395,-66.98952980282255,14.605543370211082,-0.8253661900216265,13.362146522691328,-29.513324283681936,18.09882576164217,-0.3025076052004287,208.33333335897623,147.2222222403434,697.2222223080316,102.77777779042663,311.11111114940286,408.3333333835908,261.1111111432474,N
105_63,16335,45233.33333890052,45325.00000557847,45375.00000558462,45430.55556114701,45636.111116727865,26.518622380173944,-64.48310531045249,150.15787584197304,-66.46099954552113,16.33881444300916,-1.1746801525013613,14.629445198328526,-33.83045446085034,17.601200371196803,0.4300838926547577,205.55555558085325,141.66666668409744,708.3333334205163,105.55555556854233,311.1111111493956,402.77777782734483,261.1111111432474,N
105_64,16590,45938.88889454291,46033.33333899898,46083.333339005134,46138.88889456753,46363.88889459522,26.46185698235999,-67.850260985477,153.87531214028093,-70.40428644503083,15.871492463909515,-0.9575074145771594,15.975573103028044,-35.91222871708806,18.225593277905496,-1.882295874612553,225.0000000276923,144.44444446222042,733.3333334235867,105.55555556854961,330.5555555962419,425.00000005230686,280.55555559008644,N
105_65,16854,46669.44445018839,46769.44445020069,46816.66667242872,46872.22222799112,47094.44445024069,22.64737624518981,-67.94069654568142,151.3443054904738,-67.96192182076646,14.792769784313524,0.2320184199991344,11.53842078670641,-33.454124373492505,18.570423495921894,-0.4447389915368646,222.2222222495693,147.22222224032885,761.1111112047874,102.7777777904339,325.0000000400032,425.0000000522996,277.77777781197074,N
105_66,17128,47422.22222805881,47530.55556140548,47577.77778363351,47633.3333391959,47852.77778366736,24.756711728822065,-68.42493854605858,152.2061207444538,-70.34648767213116,16.372657988952152,-0.3785786561539388,11.612529979233983,-34.13670149025065,18.995502235639744,-0.7829985565576285,219.44444447146088,155.5555555746978,750.0000000923101,102.77777779041935,322.22222226188023,430.5555556085528,275.00000003385503,N
105_67,17398,48175.00000592924,48280.555561497786,48327.77778372582,48386.11111706633,48600.00000598154,23.43760652730288,-69.99650347760468,156.48076685044177,-68.05753305538572,14.850016237186072,-2.067439353462524,11.7096357108917,-30.165266458319213,15.503551204668913,0.558119752639163,213.88888891521492,152.7777777965748,727.777777867348,105.55555556854233,319.44444448375725,425.0000000522996,272.2222222557248,N
105_68,17660,48911.11111713095,49008.333339365134,49055.555561593166,49111.11111715556,49327.77778384889,27.469199128971333,-68.42893322828616,152.14603231122297,-69.88717252864235,15.991403490317854,-1.3238191025958823,11.599295898483144,-32.224081746453194,16.60492539766019,0.4663373295404233,216.66666669333063,144.44444446221314,711.111111198632,102.77777779042663,319.44444448375725,416.6666667179379,272.2222222557248,N
105_69,17916,49627.77778388582,49719.444450563766,49766.6666727918,49822.22222835419,50027.777783935046,29.061647051425112,-67.27422832386388,153.03721329025907,-71.49292677281531,15.874747963753402,-0.1938843461162132,13.320869633612844,-33.78113566681331,17.74735341233946,-0.1837106249251699,205.55555558085325,138.88888890598173,700.0000000861546,102.77777779042663,308.3333333712799,400.00000004922913,261.1111111432474,N
105_70,18168,50325.00000619385,50419.44445064992,50466.66667287795,50525.00000621847,50733.33333957744,26.71140618432573,-64.7603216759028,147.4052544396708,-67.74390845584128,14.14751699121739,-1.2770240287190662,12.935101962422964,-33.85148584485357,14.726937834878388,-0.5071341275148149,208.33333335896896,141.6666666841047,716.6666667548707,105.55555556854961,313.88888892751856,408.3333333835908,266.6666666994861,N
105_71,18426,51036.11111739249,51136.11111740479,51183.33333963282,51238.88889519522,51452.77778411043,25.26578958552645,-63.32393733952644,145.6234073843394,-66.02191993290103,14.50541288988942,-1.510161018262919,10.69013541454528,-29.377867448945008,15.335686019773403,-0.033542362592969,213.88888891521492,147.22222224033612,711.111111198632,102.77777779042663,316.66666670564155,416.6666667179452,269.44444447760907,N
105_72,18682,51750.00000636924,51847.22222860342,51894.444450831455,51952.77778417197,52175.00000642154,25.437147772435363,-69.06601326361073,151.15643988774934,-69.34741130851617,15.312176650671072,-2.210872154868993,15.226864711778454,-37.623337828531696,17.57879089515487,0.7623278826997827,222.2222222495693,144.44444446221314,733.333333423594,105.55555556854961,327.7777778181189,425.0000000522996,280.55555559008644,N
105_73,18946,52483.33333979283,52580.55556202702,52627.77778425505,52686.11111759556,52900.00000651077,25.728762889867063,-64.63532909287477,148.59705911638895,-68.51921357475459,15.26139367822178,-0.8109674920941136,14.300962617579565,-36.90412060355027,16.297235787404226,-0.3851226016972857,213.88888891520764,144.44444446222042,741.6666667579484,105.55555556854233,319.44444448375,416.6666667179379,272.2222222557175,N
105_74,19213,53216.666673216416,53319.44445100684,53369.444451013,53425.00000657539,53644.444451046846,25.11789302043008,-67.24669686384554,154.00773281750173,-70.14717388325607,15.294239865476737,-1.0838968057668563,13.820034833471423,-31.309411712735628,15.968133457786562,0.3378446642947822,219.4444444714536,152.7777777965821,750.0000000923101,105.55555556854961,325.0000000400032,427.77777783042984,275.00000003384775,N
105_75,19483,53963.8888955306,54072.22222887727,54119.44445110531,54177.77778444582,54388.88889558291,23.28346376128838,-66.00836821910367,146.60182032915316,-67.76914044359165,15.64852451827788,-1.0500401602847995,14.091007727203856,-35.82927597990262,18.275417746354435,-0.4419194668041696,211.11111113709194,155.55555557470507,733.3333334235867,105.55555556854961,316.66666670564155,425.00000005230686,269.4444444776018,N
105_76,19747,54697.2222289542,54805.55556230086,54852.777784528895,54911.111117869405,55130.55556234086,24.313437084586774,-66.27115947033273,146.77049701059488,-65.87877758860199,16.741704635094184,-0.7508257056892491,13.417573596124257,-34.86393501772842,17.431819049085835,-0.0625820194538321,219.4444444714536,155.5555555746978,725.0000000892323,105.55555556854233,325.00000003999594,433.33333338666125,277.77777781196346,N
105_77,20008,55427.77778459966,55530.555562390095,55577.77778461813,55633.33334018052,55844.44445131761,24.48690792792756,-67.9203925693213,152.6136570735414,-70.11851221794379,15.776058256531703,-1.1256489691372753,13.10427169208138,-34.94866701377385,18.451530286936585,-0.5951938066965914,211.11111113709194,150.00000001846638,705.5555556423933,102.77777779042663,313.88888892751856,416.66666671795247,266.6666666994861,N
105_78,20262,56144.44445135454,56236.11111803249,56283.33334026052,56338.888895822914,56538.88889584753,27.5200397492767,-64.51689067665556,149.06034775781902,-67.83521218676631,16.547944671752457,-1.531987526655889,12.652285907460874,-33.774899957150986,16.569314443724366,-0.3231850538778875,200.00000002461456,138.88888890598173,702.7777778642703,102.77777779042663,302.7777778150412,394.44444449299044,255.5555555870087,N
105_79,20515,56838.88889588445,56936.11111811864,56986.11111812479,57038.88889590907,57236.11111815556,26.682623639141017,-64.3988695990616,148.4668039772107,-68.57765814721067,15.885417027140017,-0.9985620996676106,12.131810579860913,-28.85222267324006,16.74002872529855,-0.1296228988542583,197.22222224649158,147.2222222403434,691.6666667518002,102.77777779042663,300.0000000369182,397.2222222711134,250.00000003077002,N
105_80,20764,57533.33334041436,57627.77778487044,57677.77778487659,57730.55556266086,57947.22222935419,26.63639439064936,-63.18201869542647,148.3848516547631,-65.00553567846805,15.01421965632304,-1.036992977613464,12.093126357507312,-28.46465713577347,15.419566339478669,-0.6645256002587142,216.66666669333063,144.4444444622277,741.6666667579484,102.77777779041935,319.44444448375,413.8888889398295,269.4444444776018,N
105_81,21031,58266.66667383796,58369.444451628384,58419.44445163454,58475.000007196926,58888.88889613676,23.98380806659935,-69.13520853126741,154.51352969125122,-70.92513967466061,202.76581447204413,-1.4590257575798051,15.44996169441376,-36.22639848497169,21.50782314636004,41.278146544898895,413.88888893983676,152.7777777965821,475.00000005845504,105.55555556854233,519.4444445083791,622.2222222988057,469.44444450222363,N
105_82,21202,58711.1111183371,58836.11111835248,58894.444451692994,58941.66667392104,59166.66667394873,13.366011437610714,-88.78368047619972,206.5151002000579,-102.25078331309294,14.641501084886652,-2.343509207778534,-24.406236022453257,68.33911418718152,-14.264526458366106,0.61405995700894,225.00000002768502,183.33333335589123,1038.8888890167582,105.55555556856416,330.5555555962492,455.5555556116233,272.22222225573205,V
105_83,21576,59786.11111846941,59883.3333407036,59933.33334070975,59991.66667405026,60216.66667407796,18.3782852896258,-69.95358564484965,143.7936216467207,-60.32754013308741,21.27063359418572,-2.530884247677668,16.068940724988966,-34.23614569760468,15.709994752042869,-0.0044346720319933,225.00000002769957,147.2222222403434,727.777777867348,108.33333334666531,333.3333333743649,430.5555556085528,283.3333333682094,N
105_84,21838,60508.33334078052,60613.88889634907,60661.1111185771,60716.666674139495,60927.77778527659,25.24181814525858,-64.75035887882825,156.1842677346122,-72.40206131353474,13.424751556652934,-1.594875907483557,9.405404927247789,-28.152961728317056,18.51282347876965,-3.676580247288791,211.11111113709194,152.7777777965821,727.777777867348,102.77777779042663,313.88888892751856,419.4444444960682,266.6666666994861,N
105_85,22100,61244.44445198223,61341.666674216416,61388.88889644445,61447.222229784966,61658.33334092206,27.176903555102054,-67.66828703511082,150.80068013848103,-69.31421067096505,14.168346347183606,-1.0975301920286689,15.485203995113531,-36.39848654142679,18.36332261256696,-0.6519622265264836,211.11111113709194,144.44444446222042,697.2222223080389,105.55555556854961,316.66666670564155,413.8888889398295,269.44444447760907,N
105_86,22351,61944.44445206838,62036.11111874633,62086.11111875249,62144.444452093,62350.00000767385,31.69868187537421,-65.19417515430217,153.4399967885498,-76.00883973507177,12.311969934833128,-9.629535239197434,11.273793890292172,-29.0889385578756,11.175297984590287,-5.871231325704756,205.55555558085325,141.6666666841047,702.7777778642703,108.33333334666531,313.88888892751856,405.5555556054678,263.8888889213631,N
105_87,22604,62647.22222993265,62741.666674388725,62788.88889661676,62844.44445217915,63047.22222998189,27.866753028263425,-66.04681068320222,148.35446175697848,-70.78529457277821,13.343753567758196,-5.006372430737487,6.484228699157865,-26.36665700453989,16.21006010147969,-1.700018233478921,202.77777780273755,141.6666666841047,711.111111198632,102.77777779042663,305.5555555931642,400.0000000492364,258.3333333651317,N
105_88,22860,63350.00000779693,63452.77778558736,63500.00000781539,63558.33334115591,63763.88889673676,24.545818747753525,-69.89127657609238,147.8987368893647,-70.42184325912778,16.425574002275283,0.5993101362490485,8.87292064486429,-28.19896596200076,15.597624294256503,-0.8008858938147128,205.55555558085325,150.0000000184591,705.5555556423933,105.55555556854961,311.11111114940286,413.8888889398295,263.8888889213704,N
105_89,23114,64058.33334121744,64161.111119007874,64205.55556345778,64263.8888967983,64486.11111904787,25.58765890076925,-70.27544008491307,146.0710102427692,-67.53133268502683,16.129412537756465,-1.4989250562970744,10.3874991984801,-31.04013988511256,15.366898614710488,-0.711035913337717,222.2222222495693,147.2222222403434,727.7777778673553,102.77777779042663,325.00000003999594,427.77777783042984,280.55555559008644,N
105_90,23376,64786.1111190848,64883.33334131898,64933.33334132514,64988.888896887525,65208.33334135898,26.036542066395704,-66.36146415106458,147.11985530008917,-68.14314079709038,12.207462701461386,-0.9177200991849505,12.771879429787274,-27.99615489908465,15.295719607936745,-0.8518428951871849,219.4444444714536,147.22222224033612,736.1111112017097,105.55555556854233,325.00000003999594,422.2222222741766,275.0000000338405,N
105_91,23641,65516.666674730266,65619.44445252069,65669.44445252685,65725.00000808924,65950.00000811693,24.144247774840856,-68.91500599523165,151.77654229490398,-67.90892102714204,13.546204569593844,-0.4150279493656396,16.491667550791654,-33.47453818177538,16.588479346497458,0.1901791478573142,225.0000000276923,152.7777777965821,763.8888889828959,105.55555556854233,330.5555555962346,433.33333338666125,280.55555559007917,N
105_92,23916,66280.55556371318,66386.11111928172,66433.33334150974,66491.66667485026,66708.33334154359,22.916364911753952,-69.34734109484809,155.1624501388547,-72.2817894199555,15.111710359606908,-2.025334127905887,16.102897731897983,-37.87098840448057,18.05169023140356,0.4656058441799788,216.66666669333063,152.77777779656753,733.333333423594,105.55555556854233,322.22222226187296,427.7777778304153,275.00000003384775,N
105_93,24180,67019.444452693,67119.44445270531,67166.66667493334,67225.00000827386,67436.11111941095,23.784928802416143,-71.89584353242411,159.5452466786798,-74.21816881217921,18.60210836291021,-1.6908447344634698,15.865763671685048,-40.15239098101602,17.79224566908951,-1.1066614008478006,211.11111113709921,147.22222224033612,691.6666667518002,105.55555556854233,316.66666670564155,416.66666671795247,269.44444447761634,N
105_94,24429,67722.22223055728,67811.1111194571,67858.33334168514,67913.88889724753,68111.11111949403,27.133811227299336,-70.696466195298,161.79439427016254,-74.27227868802353,14.37642340160351,-1.6282098970389616,15.770395492534552,-40.17613114481666,18.51808785825089,-0.623469979282068,197.22222224650613,136.11111112785875,688.88888897367,102.77777779042663,300.00000003693276,388.88888893675175,252.777777808893,N
105_95,24677,68405.5555639747,68497.22223065265,68547.22223065881,68602.77778622121,69005.55556404855,25.659236065855605,-69.11910615995377,155.62545327485154,-70.70437314179055,221.94006786146397,-2.7873696254538003,15.042294211030248,-33.601750090138296,19.01316499374343,69.95948054478038,402.77777782734483,141.6666666841047,458.33333338974626,105.55555556855688,508.3333333959017,600.000000073851,458.33333338974626,N
105_96,24842,68811.11111958018,68950.00000848617,69005.55556404855,69050.00000849846,69125.0000085077,13.330315717400795,-92.39491456908942,221.94006786146397,-115.32089340949943,16.782590100496122,-0.693535321978025,-30.414257737562004,69.95948054478038,-7.386683857115647,0.0879430389377877,75.00000000924047,194.44444446837588,969.4444445637637,100.00000001229637,175.00000002153683,313.88888892752584,119.44444445914996,V
105_97,25191,69830.5555641501,69927.77778638428,69975.00000861232,70033.33334195284,70266.66667531487,25.58532070931097,-66.56558605913675,150.83523307458134,-71.16524415311817,18.37572912693519,-1.5912689608575628,17.141725794407684,-41.08125027402492,21.059579847891985,-1.2526000786708695,233.3333333620394,144.44444446222042,752.7777778704185,105.55555556855688,338.8888889305963,436.11111116477696,291.66666670255654,N
105_98,25462,70572.22223090804,70680.55556425471,70727.77778648274,70786.11111982325,71016.66667540719,23.60481280267044,-68.65822907948466,150.57175542712616,-68.39149587371675,12.189157528566811,0.7475474551359913,14.755356378845478,-38.18784792536651,19.46298986814734,-1.0850430746865174,230.55555558393826,155.5555555746978,750.0000000923174,105.55555556854233,336.1111111524806,444.4444444991532,288.8888889244554,N
105_99,25732,71327.77778655659,71430.55556434701,71477.77778657505,71536.11111991556,71758.33334216513,29.2036975798191,-68.88603166686782,154.64593974600643,-70.21488795184581,16.382432567147465,-0.0701225439418245,13.204517211203104,-37.25479543992027,18.937820824278237,-0.3383197384811558,222.2222222495766,150.00000001846638,736.1111112017097,105.55555556854233,327.7777778181189,430.55555560854555,280.55555559007917,N
105_100,25997,72069.44445331454,72166.66667554872,72213.88889777676,72272.22223111727,72477.77778669813,26.743968798815164,-72.4809664059989,162.4957794149008,-76.67401868648416,16.18817286262017,-3.1959261816929496,14.112940297949097,-36.01965951366383,15.555856304213837,0.4714411301608904,205.5555555808678,144.44444446222042,713.888888976755,105.55555556854233,311.11111114941014,408.3333333835908,263.8888889213704,N
105_101,26254,72780.55556451317,72880.55556452548,72927.77778675352,72983.3333423159,73200.00000900924,27.964835629584183,-64.84124388021475,145.08859184151794,-68.51200674530192,13.894357095409056,-3.861824586835984,9.70480513653514,-28.17602716545026,15.713191575564784,-0.4676549338100159,216.66666669333063,147.22222224035067,727.777777867348,102.77777779042663,319.44444448375725,419.4444444960682,272.2222222557175,N
105_102,26516,73505.5555646024,73608.33334239283,73655.55556462087,73711.11112018325,73933.33334243283,24.602250002590203,-68.4451069877057,155.13508265182716,-71.15299700316379,15.486304883563172,-2.033663616719233,15.17595002294325,-40.30002971986362,20.818882180006423,-0.8169191536730244,222.2222222495766,150.00000001846638,708.333333420509,102.77777779042663,325.0000000400032,427.77777783042984,277.77777781196346,N
105_103,26771,74222.22223135727,74316.66667581334,74363.88889804138,74419.44445360376,74616.66667585027,27.226448101357462,-68.97156121264477,159.95305094606888,-73.77530608069623,15.307346329127975,-2.9974302023904804,13.961277969670926,-36.56709371713227,18.78518201549838,-0.4920333026737321,197.22222224650613,141.6666666841047,691.6666667518002,102.77777779042663,300.00000003693276,394.4444444929977,252.777777808893,N
105_104,27020,74916.66667588719,75008.33334256514,75055.55556479318,75111.11112035556,75311.11112038018,28.39740122529153,-66.12521493158619,147.4338087473945,-67.52949171427242,15.493588334850257,-1.478064140778978,10.429753879775028,-28.32546482380395,15.189334516400862,-0.0807451303011633,200.00000002462184,138.888888905989,702.777777864263,102.77777779042663,302.77777781504847,394.4444444929977,255.5555555870087,N
105_105,27273,75608.33334263899,75708.33334265128,75758.33334265744,75813.88889821984,76027.77778713506,25.26486727032232,-68.30323572286123,154.6881757925738,-70.98774609225897,14.44294850874953,-1.95796280834533,15.20854540701262,-31.45450607084985,15.937175250564485,-1.319978004891672,213.88888891521492,150.00000001845183,711.1111111986393,105.55555556855688,319.4444444837718,419.4444444960682,269.44444447761634,N
105_106,27529,76319.44445383761,76422.22223162804,76469.44445385608,76527.7777871966,76750.00000944616,23.511308659092496,-64.80896656768684,145.83386760673253,-65.21291144371087,13.39707185824535,-2.305933191650266,10.847813437378573,-28.958199793640546,15.1317917708122,0.2328762312923449,222.22222224956204,150.00000001846638,738.8888889798254,105.55555556855688,327.7777778181189,430.55555560854555,280.55555559007917,N
105_107,27795,77058.33334281744,77158.33334282975,77208.3333428359,77263.8888983983,77497.22223176034,26.47805535167325,-66.49070913068043,152.38891650595028,-68.42977463925551,15.144453158665526,-1.1667118998090482,17.23643432879996,-36.93008000252964,19.960386661576496,-0.3832509312317878,233.3333333620394,150.00000001846638,752.777777870433,105.55555556855688,338.8888889305963,438.8888889429072,288.88888892444083,N
105_108,28066,77811.11112068787,77911.11112070018,77961.11112070634,78016.66667626872,78244.44445407453,25.26885585832649,-70.54022512856177,159.2143110568294,-72.55669658118204,15.406738834460208,-1.3899630209237883,16.68353591962041,-37.20361880657525,18.722388019072856,-2.2170745773723475,227.777777805808,150.00000001846638,747.2222223141871,105.55555556854233,333.33333337435033,433.33333338666125,283.3333333681949,N
105_109,28335,78558.33334300206,78658.33334301437,78708.33334302052,78763.88889858291,78972.2222319419,25.514302048615704,-67.77328027233236,153.49568386617725,-70.06903537262112,14.437405781455144,-3.349768153958691,13.322222507888476,-27.19488581508506,14.118008025541092,-0.9133741974867317,208.3333333589835,150.00000001846638,708.333333420509,105.55555556854233,313.88888892752584,413.88888893983676,263.8888889213704,N
105_110,28590,79263.88889864445,79366.66667643488,79416.66667644103,79472.22223200343,79675.00000980616,26.86783584018316,-71.93724746863828,157.84791194444352,-71.37687672542015,15.337949737487293,-5.645897762549556,18.33519337211129,-37.23073485031939,19.46103734621915,-1.3439215093537804,202.777777802723,152.7777777965821,680.5555556393228,105.55555556855688,308.3333333712799,411.1111111617065,258.3333333651244,N
105_111,28835,79955.55556539625,80050.00000985232,80097.22223208036,80152.77778764274,80352.77778766736,27.31307119623545,-68.61274117824767,156.39749989455836,-74.50224390037434,15.134910455068766,-0.5940904782815897,13.07155001920587,-34.75272450397134,17.699763661798745,-1.0705808252867344,200.00000002462184,141.6666666841047,705.5555556423933,102.77777779042663,302.77777781504847,397.2222222711134,255.5555555870087,N
105_112,29089,80652.77778770428,80752.7777877166,80802.77778772275,80858.33334328514,81069.44445442224,22.927353153693694,-62.11690607129922,142.64956734255412,-66.87458147813528,14.467369653466694,-0.7641802354841117,17.816024740924874,-39.79980224530322,20.550832294481594,0.2410490332296923,211.11111113709921,150.00000001846638,722.2222223111021,105.55555556854233,316.66666670564155,416.66666671795247,266.6666666994861,N
105_113,29349,81377.77778779352,81475.0000100277,81525.00001003385,81580.55556559625,81788.88889895522,22.10239491901666,-63.561573708551606,142.13681763563326,-65.86894523453091,16.117281486951168,-1.8821066379162184,14.93143355724259,-32.81322813804884,16.81126069370256,1.6127651338287317,208.33333335896896,147.22222224033612,711.1111111986393,105.55555556855688,313.88888892752584,411.1111111617065,263.8888889213704,N
105_114,29605,82083.33334343591,82186.11112122633,82236.11112123249,82294.44445457301,82511.11112126634,23.84065510578811,-64.66951959980082,139.71581584376958,-65.31117163939774,14.148292747417754,-2.3437728781836467,17.057004808400755,-37.36268594569334,18.24916106937077,-1.0825701367112577,216.66666669333063,152.7777777965821,733.333333423594,108.33333334667259,325.0000000400032,427.77777783042984,275.00000003384775,N
105_115,29869,82822.22223241573,82922.22223242804,82969.44445465608,83027.77778799659,83250.00001024616,22.720737444453523,-60.7824589241872,136.63197915679916,-63.17324917105931,11.901089663970396,-0.4275258163266493,15.661547731874176,-38.44687742307268,17.785547363737425,-1.0205648581190283,222.2222222495766,147.22222224035067,744.4444445360568,105.55555556854233,327.7777778181189,427.77777783042984,280.55555559007917,N
105_116,30137,83563.88889917369,83663.88889918599,83713.88889919214,83772.22223253266,83988.88889922599,23.07360558682688,-62.32178834922849,140.28769412861084,-64.11140563857852,14.247304362124268,-1.4792279099967056,16.781315938701148,-36.14978364506016,17.910495227931566,-0.3926053902050093,216.66666669333063,150.00000001845183,733.333333423594,108.33333334667259,325.0000000400032,425.0000000522996,275.00000003384775,N
105_117,30401,84300.0000103754,84397.22223260958,84447.22223261574,84500.0000104,84711.1111215371,24.82318549403514,-67.41431919270842,153.91305534847282,-71.47860735661952,15.422620260134956,-2.950013955244986,14.120791267512034,-32.56329435530643,17.51280332869257,-0.2393072359628049,211.11111113709921,147.22222224033612,725.0000000892323,102.77777779042663,313.88888892752584,411.1111111617065,263.8888889213704,N
105_118,30662,85019.44445490839,85125.00001047693,85172.22223270497,85230.55556604548,85438.88889940445,25.04670916466111,-68.80270033347713,152.86069788586025,-70.24437547414666,17.699670373854172,-1.6060602423977477,16.32966947064314,-36.49590498217033,16.807581152352142,1.1673337634142291,208.33333335896896,152.7777777965821,213.88888891521492,105.55555556855688,313.88888892752584,419.4444444960682,266.6666666994861,N
105_119,30739,85300.00001049846,85375.0000105077,85386.11112162018,85386.11112162018,85730.55556610702,8.044705767021423,-10.013440234847298,-8.273896630183467,-8.273896630183467,25.884863780322892,-3.153339438599664,1.884674358700595,1.7042392221811504,1.7042392221811504,-1.6445190825481273,344.44444448684226,86.11111112171784,494.4444445052941,11.111111112477374,355.55555559931963,430.5555556085601,344.44444448684226,~
105_120,30917,85730.55556610702,85833.33334389745,85880.55556612548,85936.11112168788,86147.22223282496,25.884863780322892,-63.94344586120488,142.15234231322492,-63.90385721936629,15.512106657019483,-1.6445190825481273,11.68477894749461,-31.85066147854063,18.721770346912077,33.2065805151931,211.11111113708466,150.00000001845183,688.8888889736845,102.77777779042663,313.8888889275113,416.6666667179379,266.6666666994861,N
105_121,31165,86419.4444550807,86522.22223287112,86569.44445509916,86627.77778843966,86827.77778846429,36.14465853355642,-69.0689083818843,150.8713072269239,-70.05370173670471,16.727904967694325,-12.166438347953289,13.018677965793971,-33.84584369584814,16.491521104348816,0.8094487308110133,200.00000002462184,150.00000001846638,391.66666671486746,105.55555556854233,305.5555555931642,408.3333333835908,258.3333333651244,N
105_122,31306,86827.77778846429,86894.44445513915,86961.11112181403,87063.88889960446,87266.6666774072,16.727904967694325,-4.614840347072721,-1.2585943528284085,-9.68198913487802,152.2673531723253,0.8094487308110133,1.4784621703130885,-2.017474842104499,1.871770707035488,-26.77216992256488,202.77777780273755,133.33333334974304,305.5555555931642,169.44444446530542,372.22222226804297,438.8888889429072,305.5555555931642,~
105_123,31416,87122.22223294497,87219.44445517915,87266.6666774072,87322.22223296958,87525.00001077232,26.5831384408328,-68.15230945912762,152.2673531723253,-70.06184641562693,15.458555449893888,-1.2621352166947983,10.5757690145055,-26.77216992256488,14.305272482086796,0.0269308420906864,202.77777780273755,144.44444446222042,702.777777864263,102.77777779042663,305.5555555931642,402.77777782734483,258.3333333651244,N
105_124,31669,87822.22223303112,87919.44445526531,87969.44445527146,88025.00001083386,88238.88889974907,24.84668837338621,-65.51290666514176,150.10342328394512,-66.93860311861133,16.37822889622051,-0.4728779726348053,14.33836583988855,-32.41254979231668,16.495559364884972,-0.4114569813606131,213.88888891521492,147.22222224033612,736.1111112017097,105.55555556854233,319.44444448375725,416.66666671795247,269.44444447761634,N
105_125,31934,88550.00001089847,88658.33334424514,88705.55556647317,88766.6666775918,88994.44445539762,23.515814722960428,-70.05225962327148,149.0424606429421,-68.64138613258717,15.75816818775903,-0.869780930427108,13.691506825414995,-35.27183211380392,16.68548612349882,0.3961447114021125,227.77777780582255,155.5555555746978,758.333333426679,108.33333334665804,336.1111111524806,444.4444444991532,288.8888889244554,N
105_126,32207,89313.88889988138,89413.88889989369,89463.88889989984,89522.22223324035,89738.88889993369,23.75305144616633,-70.08703120962532,154.82356727574955,-70.82962606584172,15.3550821312817,-2.582030445292267,15.686172387864817,-33.757736684010986,15.885415229078289,0.1760064621090016,216.66666669334518,150.00000001846638,747.2222223142016,108.33333334665804,325.0000000400032,425.00000005231414,275.00000003384775,N
105_127,32476,90061.11112219557,90163.888899986,90211.11112221405,90266.66667777642,90472.22223335729,23.789256918141053,-65.16675596351938,150.31247499852248,-67.24961054901917,17.017982593420616,-1.3226825176294332,11.320433041377576,-30.759808756558527,16.283630648942307,1.197838678341547,205.5555555808678,150.00000001848093,719.4444445329718,102.77777779041207,308.3333333712799,411.11111116172106,261.1111111432401,N
105_128,32735,90780.55556672857,90883.33334451898,90930.55556674702,90986.1111223094,91188.88890011214,24.3410994779099,-68.42045409872696,155.1764920695802,-71.73925538386948,16.890816278243488,-2.073752125931434,12.153151661855272,-29.284827100659555,16.206783129576333,-1.7003348366305566,202.77777780273755,150.00000001845183,697.2222223080171,102.77777779042663,305.5555555931642,408.33333338357625,258.3333333651244,N
105_129,32986,91480.55556681471,91577.7777890489,91627.77778905504,91680.55556683932,91891.66667797642,27.17075151778142,-65.45329063122796,151.26124398675722,-66.4183566948031,16.93998634206633,-0.7493768733797358,15.06939337761627,-32.819112223194296,17.75601006110126,-1.2290105831760527,211.11111113709921,147.22222224032157,688.8888889736845,102.77777779042663,313.88888892752584,411.1111111617065,263.88888892138493,N
105_130,33234,92172.2222335665,92266.66667802258,92316.66667802872,92372.22223359112,92586.11112250634,28.7988581353628,-71.89338967815907,162.40537612416966,-72.90280267072187,15.751397518844838,-0.7772527902237447,16.522207896440865,-35.753581590283616,18.978413341006657,-0.6724033371606879,213.88888891521492,144.44444446222042,711.1111111986393,105.55555556854233,319.44444448375725,413.88888893983676,269.44444447761634,N
105_131,33490,92886.11112254324,92980.55556699932,93027.77778922736,93083.33334478976,93294.44445592684,28.203593545598903,-67.58611769160333,155.71539056406766,-69.81312756138739,15.38049234495534,-0.1406799665978064,11.63300426537051,-28.880255388853847,14.82464435841182,-0.0796569398061446,211.11111113708466,141.66666668411926,719.4444445330009,102.77777779044118,313.88888892752584,408.33333338360535,266.6666666994861,N
105_132,33749,93602.77778929812,93700.00001153232,93747.22223376036,93802.77778932276,94013.88890045985,26.393673234200467,-65.37780970235076,147.25211122113436,-65.53144702794648,15.80409742561287,-1.2490991097351956,10.679252955914,-26.773665134351518,14.41396856808025,-0.0895118281974173,211.11111113708466,144.44444446223497,725.0000000892178,102.77777779044118,313.88888892752584,411.11111116172106,266.6666666994861,N
105_133,34010,94319.444456053,94425.00001162157,94472.22223384958,94530.5555671901,94750.00001166156,25.45115651134013,-68.33813519541246,153.81254214612284,-70.76503873824502,15.750629008096467,-0.3896703781149994,14.498824343278894,-36.02574336310125,16.251075634445765,-0.1043201507324063,219.44444447146088,152.7777777965821,733.3333334235795,105.55555556852778,325.00000003998866,430.5555556085601,277.777777811978,N
105_134,34274,95055.5555672547,95158.33334504512,95205.55556727316,95263.88890061367,95483.33334508514,26.878099161036115,-71.4481691828312,160.10905353711215,-74.2892100877744,15.671059782542535,-0.4594937814912539,14.561970862823854,-37.04537952497867,18.575434538749693,0.5148514751831962,219.44444447146088,150.00000001845183,744.4444445360859,105.55555556855688,325.00000004001777,427.77777783042984,277.777777811978,N
105_135,34542,95794.44445623456,95902.7777895812,95950.00001180924,96008.33334514976,96238.88890073368,24.79916175906141,-70.67722409550032,155.5674037362511,-70.23583644552082,15.42440816716438,-0.695654137437381,13.868007107817458,-33.79326362426025,16.94904676367935,-0.2776645466076385,230.5555555839237,155.55555557468324,766.6666667610407,105.55555556855688,336.1111111524806,444.4444444991241,288.88888892444083,N
105_136,34818,96563.88890077369,96669.44445634224,96716.66667857028,96772.22223413266,96988.888900826,25.049396140893755,-66.30255079423718,150.38364305724093,-67.66561906370663,17.727455862516294,-0.4859601989475468,11.977150024509228,-30.552291687335025,15.659122617078223,-0.5502231978738947,216.66666669334518,152.77777779659664,716.6666667548561,102.77777779041207,319.44444448375725,425.00000005231414,272.2222222557175,N
105_137,35076,97283.33334530667,97386.1111230971,97433.33334532514,97488.88890088753,97700.00001202464,28.267950652402416,-70.41988145273011,158.92683564207078,-74.29382271869346,17.142240952235532,0.0609891545034064,14.133706964450894,-39.37283174651148,21.03108593757388,-1.5213143397333808,211.11111113711377,150.00000001846638,683.3333334174386,102.77777779042663,313.8888889275404,416.666666717967,266.66666669950064,N
105_138,35322,97977.7777898366,98066.66667873642,98116.66667874258,98169.44445652683,98375.0000121077,29.724431135786887,-68.6926033231139,159.0950318793636,-72.77230298630018,17.403000824892565,2.092306571016316,16.989556143496834,-37.517352395438856,19.91760571216095,-0.6691984314391923,205.5555555808678,138.88888890597445,691.6666667517857,102.77777779041207,308.3333333712799,397.2222222710989,258.3333333651244,N
105_139,35571,98666.66667881027,98761.11112326634,98808.33334549436,98863.88890105677,99072.22223441572,29.15214463955311,-69.70899422514022,163.13783545810253,-76.72057362204202,16.077966607420084,1.0765293513439902,11.911778004230715,-31.781374728913438,16.49214651618382,0.9991510233157432,208.3333333589544,141.66666668409016,719.4444445330009,102.77777779042663,311.11111114938103,405.555555605446,263.88888892135583,N
105_140,35830,99388.88890112138,99480.55556779933,99527.77779002736,99583.33334558977,99786.11112339247,28.78263751865848,-64.96049308271361,154.0712923829656,-72.54013288065354,15.009028634958517,1.1026826160956569,14.151295704426524,-38.466726582650885,19.413282178853525,1.404998012297556,202.77777780270844,138.888888905989,730.5555556454783,102.77777779044118,305.5555555931496,397.2222222710989,258.33333336510987,N
105_141,36093,100108.33334565438,100211.1111234448,100258.33334567284,100316.66667901336,100530.55556792856,26.174340044687124,-69.64222710290154,151.67937481461402,-71.36604599493123,13.999375465383292,-0.3244873940334745,9.23687934080829,-24.264765596530346,12.917871828260877,-0.7945593187764043,213.88888891520037,150.00000001846638,758.3333334266499,105.55555556855688,319.44444448375725,422.2222222741839,272.2222222557175,N
105_142,36366,100861.1111235248,100969.44445687148,101016.6666790995,101075.00001244,101297.2222346896,26.61754336186157,-67.29106194248706,147.0567607004669,-65.90288181389556,15.67910113811728,-0.5321634636472672,10.375022625604815,-30.512768660123243,16.946365062213268,-1.174023773963685,222.2222222496057,155.5555555746978,741.6666667579411,105.55555556851323,327.7777778181189,436.11111116480606,280.55555559010827,N
105_143,36633,101608.33334583898,101708.3333458513,101758.33334585743,101813.88890141984,102202.7777903566,27.636243464253138,-67.31912668791487,146.23600324324798,-69.204429522868,213.0920849654098,0.6023240013682347,13.303307121553557,-31.25189080454234,17.778344091091355,67.46025952332299,388.8888889367663,150.00000001845183,444.44444449916773,105.55555556854233,494.44444450530864,594.4444445176196,444.44444449916773,N
105_144,36793,102047.22223478188,102147.2222347942,102202.7777903566,102250.00001258464,102341.66667926258,17.315191285778205,-91.13022720459377,213.0920849654098,-106.33427225167476,13.226089696257686,-1.885559660859032,-27.232250765207294,67.46025952332299,-12.288557047378657,3.5856181303424783,91.6666666779347,155.5555555747269,994.4444445668341,102.77777779044118,194.44444446837588,294.44444448070135,138.88888890597445,V
105_145,37151,103061.11112379556,103150.0000126954,103197.22223492344,103252.77779048582,103477.77779051352,30.393002329837024,-71.88226086742779,156.91004172954942,-69.07566464782403,19.23559435971905,-0.6148452735272071,15.857087696126255,-38.88054992438572,17.293944427361698,2.672023656685891,225.0000000276923,136.1111111278733,727.777777867348,102.77777779042663,327.7777778181189,416.66666671795247,280.55555559007917,N
105_146,37413,103780.55556832856,103877.77779056274,103925.00001279078,103983.33334613129,104197.2222350465,27.229217514678183,-70.26033587315662,154.15523891724547,-71.68125082494808,15.087048237947544,-2.062960716578246,10.58322819457464,-29.314691608620414,15.43228988990129,0.2075573081899544,213.88888891521492,144.44444446222042,702.7777778642485,105.55555556854233,319.44444448375725,416.6666667179379,272.2222222557175,N
105_147,37666,104488.88890174907,104577.7777906489,104627.77779065503,104683.33334621743,104886.1111240202,26.50984612594321,-67.17588342348093,153.2449673999223,-71.05800631276021,14.947430522638754,-1.4070381260191094,14.040377796984831,-33.54828966086633,17.337880894029222,1.1335773376651013,202.77777780276665,138.8888889059599,691.6666667518002,105.55555556852778,308.33333337129443,397.222222271128,258.3333333651681,N
105_148,37915,105180.55556850087,105269.44445740068,105319.44445740683,105372.22223519112,105575.00001299386,27.24449656632619,-66.90296134049444,153.94494813390807,-68.77091907548943,15.643311568878456,-0.5711387805351409,12.740017106811958,-30.282633794854032,16.453931116402895,-0.3946907445829789,202.77777780273755,138.8888889059599,697.2222223080462,102.77777779044118,305.5555555931787,394.44444449298317,255.55555558702326,N
105_149,38166,105869.44445747454,105969.44445748684,106016.66667971488,106072.22223527728,106286.1111241925,25.40738273738552,-65.31299199052006,145.30044982733295,-64.4184846992571,14.100343706976354,-1.2144415731661216,12.089521541987446,-30.0259880791361,14.98309003671176,-0.875844974240074,213.88888891521492,147.22222224033612,733.333333423594,102.77777779044118,316.6666667056561,416.66666671795247,269.44444447761634,N
105_150,38430,106594.44445756378,106702.77779091043,106750.00001313847,106808.333346479,107027.77779095044,26.33751001092265,-66.73654384898171,151.45958055374044,-67.6340578721007,16.26414018222534,1.873631166309628,13.138140507299443,-36.79324212418035,17.867357797919254,-1.2944723638177658,219.44444447143178,155.5555555746978,727.777777867348,105.55555556857144,325.0000000400032,433.33333338666125,277.77777781196346,N
105_151,38692,107325.00001320924,107430.5555687778,107477.77779100582,107536.11112434634,107766.66667993026,27.2426151812322,-67.49087181341733,152.40110287699687,-70.06437114488877,15.761920815570946,0.1467322624104702,14.273426473677665,-38.00759367135776,18.789261674113725,0.8602597046146576,230.5555555839237,152.7777777965821,741.6666667579557,105.55555556854233,336.11111115246604,441.6666667210229,288.88888892444083,N
105_152,38959,108069.44445774533,108172.22223553574,108219.44445776378,108277.77779110428,108508.33334668822,27.95235346596504,-69.64255340274482,153.00969410417838,-69.44368623836638,13.27846415056662,1.3442232962977192,13.323991755999993,-36.9228516666392,19.74975084950795,-0.3159724865087323,230.55555558393826,150.00000001845183,738.8888889798254,105.55555556854233,336.1111111524806,438.88888894289266,288.88888892444083,N
105_153,39225,108816.6666800595,108911.11112451556,108958.3333467436,109016.66668008412,109222.22223566496,33.05742897983277,-70.71337255804555,155.3484884575288,-71.26622048191543,14.498608809421508,0.3599117741585563,12.769403644159484,-34.97030753339501,17.09625714230562,-1.0011228258979938,205.5555555808387,141.6666666841047,700.0000000861619,105.55555556855688,311.1111111493956,405.55555560546054,263.88888892135583,N
105_154,39477,109516.66668014566,109613.88890237984,109658.33334682976,109716.66668017028,109913.88890241676,22.637855384942718,-62.62677015920069,140.50893206762424,-63.135523708308014,13.482221659375307,2.507972544985765,4.6883317514969045,-22.6465390163588,12.343611086215962,3.0983252646749886,197.22222224647703,141.6666666841047,675.0000000830769,102.77777779044118,300.0000000369182,397.2222222710989,255.55555558699416,N
105_155,39720,110200.00001356308,110286.1111246848,110333.33334691284,110388.88890247524,110588.88890249984,32.13633062759305,-68.5232513141949,153.08426687381274,-68.57797007010362,11.060424140362857,1.4757799360061965,8.539765285695934,-21.12307101609951,12.459837862158382,-0.6043096498076629,200.00000002459274,133.3333333497576,708.3333334205236,102.77777779044118,302.7777778150339,388.88888893675175,255.55555558699416,N
105_156,39975,110897.22223587112,110994.44445810532,111041.66668033336,111100.00001367384,111311.11112481097,29.254491765615544,-64.35943971675114,148.74815278459585,-67.79837172548086,16.903370974669652,0.8010159808057052,13.904750446449189,-37.04901117627065,16.13508540842207,-1.0370722482631067,211.11111113712832,144.44444446224952,711.1111111985956,105.55555556851323,316.66666670564155,413.8888889398513,269.4444444776018,N
105_157,40231,111611.11112484788,111705.55556930396,111752.77779153196,111808.33334709438,112016.66668045336,27.01854580365052,-70.5447711195464,162.07226015232686,-74.84572512623497,15.843885075009736,-0.563377582358699,14.39613619964065,-35.02802092656208,17.245223222256737,-1.213170050942982,208.3333333589835,141.6666666840756,716.6666667548852,102.77777779041207,311.1111111493956,405.5555556054751,263.8888889213995,N
105_158,40489,112319.4444582684,112419.44445828068,112469.44445828685,112525.00001384925,112741.66668054258,25.072069771776192,-64.23560609721072,143.15174669073815,-65.4006868176245,16.502088371783984,-0.5274021245049126,14.518218640386412,-33.59759811981294,17.74141175555966,-0.2553940310788229,216.66666669333063,150.00000001845183,711.1111111986393,105.55555556857144,322.22222226190206,422.2222222741839,272.22222225573205,N
105_159,40745,113030.55556946702,113133.33334725744,113180.55556948548,113238.888902826,113469.44445840993,27.11858548982955,-69.19159561444759,155.02016896347692,-70.6173985591419,14.293239481158537,1.2121436800370498,16.380815901244052,-39.94984296345689,20.322638373129838,-1.112762231056582,230.5555555839237,150.00000001846638,733.333333423594,105.55555556855688,336.1111111524806,438.8888889429072,288.88888892444083,N
105_160,41009,113769.44445844684,113866.66668068104,113913.88890290908,113969.44445847148,114200.0000140554,27.176483106364888,-71.0203877691788,161.42781468973598,-71.02389764079858,15.157068009448794,-0.1086541424098898,13.09981272684318,-32.35152433268548,16.005153581214074,0.0317560223646777,230.5555555839237,144.44444446223497,730.5555556454638,102.77777779044118,333.3333333743649,430.5555556085601,286.11111114632513,N
105_161,41272,114505.55556964855,114594.4444585484,114644.44445855454,114697.2222363388,114927.77779192277,28.205735283542445,-67.93289156838281,153.31120092460085,-67.95828982151778,11.050539087508588,-0.106435715886764,14.54460446985425,-33.64929728342757,18.521309899347067,-3.4474115069649955,230.55555558396736,138.888888905989,708.3333334204945,102.77777779039752,333.3333333743649,422.222222274213,283.333333368224,N
105_162,41527,115205.55556973472,115302.7777919689,115352.77779197504,115408.33334753744,115619.44445867454,26.71587337532921,-67.98869431775783,150.6479407372638,-66.95952904789242,16.25860362935557,3.0112954242594587,17.134946079289737,-40.56563936579286,23.44935589789694,-0.7143063213542569,211.11111113709921,147.22222224032157,705.5555556424079,105.55555556854233,316.66666670564155,413.8888889398222,266.66666669950064,N
105_163,41781,115916.66668093334,116013.88890316754,116058.33334761744,116116.66668095796,116322.22223653882,27.78415942386665,-67.7666678637116,150.03965574927682,-65.77078754575453,15.768498091583986,-0.2031101155543898,10.268426863262103,-38.70996729434936,19.138085767454697,0.2113504353865302,205.55555558085325,141.6666666841047,683.3333334174386,102.77777779042663,308.3333333712799,405.5555556054751,263.8888889213704,N
105_164,42027,116605.55556990702,116691.66668102871,116741.66668103488,116794.44445881915,117013.88890329062,26.47123319673858,-63.17355310455306,147.82499775124268,-70.75316557127654,13.67000210181684,-3.3276340393098107,11.709586916056688,-24.794026861629863,16.122910026842845,-0.5370300796866092,219.44444447146088,136.11111112785875,686.1111111955543,102.77777779044118,322.22222226190206,408.3333333835908,272.22222225573205,N
105_165,42274,117291.66668110258,117375.00001444617,117427.77779223044,117483.33334779284,117686.11112559556,35.17981834412364,-64.7357687556382,156.30069463353917,-71.49611487825631,18.80765409924294,-1.1666397831407482,14.062764842463968,-28.44772959149201,16.40855957854246,1.190071806558907,202.777777802723,136.11111112785875,694.4444445299159,108.33333334667259,311.1111111493956,394.44444449298317,258.3333333651244,N
105_166,42524,117972.22223674189,118075.00001453231,118122.22223676035,118180.55557010089,118394.44445901609,27.60812760340863,-70.54124801773153,157.2629312222871,-70.52970147917664,14.72432397843947,1.131281589016251,10.58079285541765,-28.123422897729466,15.093266310968662,-2.229707994253566,213.88888891520037,150.00000001846638,747.2222223141871,105.55555556857144,319.4444444837718,422.22222227419843,272.22222225573205,N
105_167,42793,118716.66668127796,118819.4444590684,118869.44445907454,118925.00001463694,119158.33334799898,30.27210268871812,-62.71457784208954,145.3482238145479,-64.652667854969,16.52002559786212,3.6320254942627743,13.675014611584,-30.56477990923405,16.323686874803094,0.2530612823106524,233.3333333620394,152.7777777965821,736.1111112016952,105.55555556854233,338.88888893058174,441.6666667210229,288.88888892444083,N
105_168,43058,119458.33334803591,119555.5555702701,119605.55557027624,119661.11112583864,119883.3333480882,27.89196309271309,-68.12981486370452,153.65267412547314,-68.80216209304918,16.282433521862053,0.9957819876146666,17.066392958527945,-38.601139296416704,20.09167639495788,-1.4630098909471314,222.22222224956204,147.22222224032157,733.3333334236086,105.55555556854233,327.77777781810437,425.00000005228503,277.77777781196346,N
105_169,43322,120194.44445923762,120291.6666814718,120338.88890369984,120394.44445926225,120602.7777926212,32.11086424545663,-72.89055814779731,160.49048215809242,-68.42443848683514,16.12471096710768,0.1211104054607667,14.020283638249694,-39.32549693745602,21.28878003159058,-1.3692487294792306,208.3333333589544,144.44444446222042,697.2222223080316,102.77777779044118,311.1111111493956,408.33333338357625,263.88888892135583,N
105_170,43573,120894.44445932376,120991.66668155797,121036.11112600788,121094.4444593484,121297.22223715112,26.826132863325636,-65.99520845111972,152.01729483807435,-68.93921841597108,16.384638052793903,-0.1326781623263918,10.316993400323264,-35.208942174545314,16.71013500387737,1.4572976130980893,202.777777802723,141.66666668411926,683.3333334174386,102.77777779042663,305.5555555931496,402.7777778273594,261.1111111432401,N
105_171,43819,121580.55557051933,121675.0000149754,121719.44445942531,121777.77779276585,121983.33334834668,30.600254592222743,-66.4530914009535,149.77986896820383,-69.31967663465988,15.40554285194284,1.892600151243379,10.381443357317144,-37.70527904560589,18.657247200400857,-0.1450883993358089,205.5555555808387,138.888888905989,672.2222223049612,102.77777779044118,308.3333333712799,402.7777778273594,263.8888889213704,N
105_172,44061,122258.33334838052,122344.44445950224,122391.66668173028,122447.22223729266,122658.33334842976,29.224261897363263,-69.12315692004101,153.32470237520593,-68.0375748321726,13.967259358008906,-2.628362936058891,9.28046760952041,-22.94594640538603,12.548410833796316,0.6291599590901018,211.11111113709921,133.3333333497576,700.0000000861473,102.77777779042663,313.88888892752584,400.0000000492437,266.6666666994861,N
105_173,44313,122952.77779291043,123041.66668181028,123091.66668181642,123147.2222373788,123361.11112629402,30.27979711590888,-65.9799194243089,144.10192895000398,-64.80443031012825,15.989390861544688,-1.037767397204227,11.196089763221575,-29.39581372594385,15.68184916717079,-0.8067777412086974,213.88888891522947,138.888888905989,705.5555556423933,105.55555556851323,319.4444444837427,408.3333333835908,269.4444444776018,N
105_174,44567,123658.33334855284,123750.00001523078,123797.22223745882,123852.7777930212,124055.55557082394,28.395761703693115,-66.54078166654472,152.69431884035043,-69.26362109466594,15.43123022512106,-1.430218227048455,14.664995892544257,-38.051110734914566,18.84060135555514,-0.2629150774729716,202.77777780273755,138.88888890597445,691.6666667518002,102.77777779042663,305.5555555931642,397.2222222710989,258.3333333651244,N
105_175,44816,124344.4444597484,124441.66668198258,124488.88890421062,124547.22223755112,124766.66668202258,26.969869823527883,-68.16688658504096,151.00792431125916,-68.35255796326362,16.40115427122766,-0.1836815329541119,13.806671188177049,-36.1485956870422,17.72958608013401,0.3426209593090467,219.44444447146088,144.44444446222042,719.4444445329864,105.55555556854233,325.0000000400032,422.2222222741839,277.77777781196346,N
105_176,45075,125063.88890428138,125161.11112651556,125208.3333487436,125263.888904306,125483.33334877744,26.687974449859748,-68.20851289444133,153.4804077000192,-69.39014184713311,14.66691999617094,-0.4610102243333574,11.956637075539344,-31.31864939948302,15.788889740287017,-0.5775555104187957,219.44444447143178,144.44444446222042,733.333333423594,102.77777779044118,322.22222226187296,419.4444444960536,275.0000000338332,N
105_177,45339,125794.44445992685,125894.44445993916,125941.6666821672,126000.0000155077,126225.0000155354,25.081967404630657,-68.44865049631164,152.9108983069187,-68.08270175952453,15.054354227451714,-1.4358117453603991,13.974944869150711,-33.31648647974442,14.5764782678302,-0.0441183009286214,225.00000002770685,147.22222224035067,747.2222223141871,105.55555556854233,330.5555555962492,430.5555556085601,283.3333333682094,N
105_178,45608,126538.88890446292,126641.66668225334,126688.88890448138,126747.2222378219,127119.44446008992,25.30237256743065,-68.07181621769307,150.84247102013398,-67.75585213364,216.28043679708912,-1.304874355014671,14.744418200095666,-39.1596145571708,18.813518976742053,61.28133202737433,372.22222226801387,150.00000001846638,430.555555608531,105.55555556855688,477.77777783657075,580.5555556269974,430.555555608531,N
105_179,45763,126969.44446007146,127063.88890452751,127119.44446008992,127163.88890453984,127244.44446010533,21.25994818583637,-91.23529163854512,216.28043679708912,-108.57729777926896,14.96067571075843,-1.815887525835541,-23.76647908660344,61.28133202737433,-6.0647434039775625,0.3826176974874798,80.55555556548643,150.00000001845183,941.666666782563,100.00000001232547,180.5555555778119,275.0000000338623,125.00000001541048,V
105_180,46102,127936.11112685713,128011.11112686634,128061.11112687248,128116.66668243488,128327.77779357198,28.48926424019265,-70.86250415310035,155.47449658635307,-70.38271705551182,18.699754957341906,-1.5370133639256789,15.5109061140276,-37.72748377458916,17.602287242725662,0.4243167154383462,211.11111113709921,125.00000001535227,680.5555556393374,105.55555556854233,316.66666670564155,391.6666667148529,266.66666669950064,N
105_181,46347,128605.55557138394,128691.66668250566,128741.66668251182,128794.44446029609,128997.22223809882,29.158105162403327,-65.92938713218064,148.84732616134065,-68.64432584992056,15.974641105248237,-0.5150900656870525,11.57274112974904,-28.90077253550153,16.002753952626428,-1.0729223174518476,202.77777780273755,136.1111111278733,686.1111111955397,102.77777779042663,305.5555555931642,391.666666714882,255.5555555870087,N
105_182,46594,129283.33334924516,129380.55557147932,129427.77779370736,129483.33334926976,129683.33334929438,27.12311807866135,-65.67916067534516,150.69849381082125,-68.25508499913862,17.87873401929552,0.1437307607023336,13.457907929721044,-37.0134312089931,19.39568268549529,-0.0806374915868872,200.00000002462184,144.4444444621913,694.4444445299305,102.77777779044118,302.777777815063,400.0000000492146,255.55555558702326,N
105_183,46844,129972.22223821882,130075.00001600925,130122.22223823729,130183.33334935592,130402.77779382736,24.358800482047773,-66.10340880533559,146.20464602815596,-66.37669308331178,15.974224715267605,-1.223179966157694,15.508575686734137,-39.9681890250674,17.570721836544315,-0.5054853762262093,219.44444447144633,150.00000001846638,730.5555556454783,108.33333334667259,327.7777778181189,430.55555560854555,280.55555559007917,N
105_184,47107,130702.77779386428,130802.7777938766,130852.77779388276,130908.33334944514,131133.33334947284,25.175802565677195,-67.1282232402477,150.9800956253285,-67.93883621535281,16.638934731354666,-0.8147177784735862,13.251341282972437,-30.66796879090802,15.94144151615908,0.4706869013989888,225.00000002770685,150.00000001848093,733.3333334235649,105.55555556854233,330.5555555962492,430.5555556085601,280.55555559007917,N
105_185,47371,131444.44446062224,131538.88890507832,131586.11112730633,131644.44446064686,131858.33334956208,26.613654505435527,-71.10334904612192,158.1451663684204,-72.42670301981339,15.915678500015208,-1.3532259158931144,17.075100802144263,-43.42269117856559,20.107678202181297,0.6467098182328118,213.88888891521492,141.66666668409016,733.333333423594,105.55555556854233,319.44444448375725,413.88888893983676,272.2222222557466,N
105_186,47635,132169.44446071147,132272.22223850188,132319.44446072992,132375.00001629232,132583.3333496513,26.206698176164917,-70.61171578481365,164.0612633138662,-74.05821397074847,17.216254131368675,-1.8255469774952573,15.919499839575384,-37.75740322811989,19.682883442451427,0.6866414359960971,208.3333333589835,150.00000001845183,702.7777778642776,102.77777779044118,311.1111111494247,413.88888893983676,263.88888892138493,N
105_187,47888,132880.5555719101,132975.00001636616,133022.2222385942,133077.7777941566,133288.8889052937,27.05036847811096,-69.93774769338224,155.0514003457277,-69.638321051519,18.09147506678307,-1.2451748521480763,16.654286133171883,-40.42986896773295,20.243819768953458,1.1134540285844832,211.11111113708466,141.66666668409016,700.0000000861473,102.77777779044118,313.88888892752584,408.33333338357625,266.6666666994861,N
105_188,48140,133580.55557199626,133675.0000164523,133722.22223868035,133780.55557202088,133986.11112760173,26.728603049392305,-68.48140794343504,155.05979546625022,-70.39331808263864,16.79082766301285,-1.4490989239285887,15.714200242973348,-39.6042849701976,18.398008064290327,-0.0669313313278547,205.55555558085325,141.66666668409016,702.7777778643067,105.55555556857144,311.1111111494247,405.5555556054751,263.88888892138493,N
105_189,48393,134288.88890541677,134377.7777943166,134425.00001654465,134480.55557210703,134677.77779435352,27.95276505913162,-70.15309435226243,159.73920890512915,-73.49123371833967,17.863043411861508,-1.663015531352866,15.85692917943059,-41.18821274953505,20.15068105865313,0.2758057151027272,197.22222224649158,136.11111112788785,694.4444445298868,102.77777779044118,300.00000003693276,388.88888893675175,252.7777778088639,N
105_190,48643,134975.00001661232,135072.2222388465,135119.44446107454,135175.00001663694,135377.77779443967,26.051731378685457,-68.20294704453869,157.45629359207166,-72.23229290503595,18.166029184604408,-1.6537447009631734,13.988906453493897,-35.73761640706079,17.480065691027193,-0.6404007368976063,202.777777802723,144.44444446222042,683.3333334174531,102.77777779044118,305.5555555931642,402.77777782734483,258.3333333651244,N
105_191,48889,135655.55557225164,135752.77779448582,135802.777794492,135855.55557227627,136069.44446119148,31.52394160108588,-64.01906555508293,153.76850821955102,-72.61912861352756,14.5151682179215,-0.8323438340715913,16.53726930165405,-37.18878899126747,20.113883760958903,-0.9883904082327432,213.88888891521492,147.22222224035067,708.333333420509,102.77777779044118,316.6666667056561,413.88888893983676,266.6666666994861,N
105_192,49144,136363.88890567215,136463.88890568446,136511.1111279125,136569.444461253,136797.2222390588,25.62534323681705,-71.432179330808,158.155276575654,-73.12290311122761,14.05484060025986,-2.12076338014106,18.401377955493352,-45.14763547789601,21.24989946621049,1.4380755371599476,227.777777805808,147.22222224035067,738.8888889798254,105.55555556854233,333.33333337435033,433.33333338666125,286.1111111463106,N
105_193,49410,137105.5555724301,137202.7777946643,137250.00001689233,137305.55557245473,137530.5555724824,27.9751803354978,-68.43511325755797,151.11245236320875,-67.73469374551406,17.087948344541317,-1.9377524340328167,13.901273010219176,-34.62435977752336,20.975678451533582,0.282895047285019,225.00000002767774,144.44444446222042,744.4444445360568,102.77777779044118,327.7777778181189,425.0000000522996,280.55555559007917,N
105_194,49678,137844.44446140993,137947.22223920035,137994.4444614284,138050.0000169908,138269.44446146223,27.110082667966964,-68.73824200079132,158.36556845143232,-74.7371744670747,15.411944597694657,-0.051906216001781,18.54988151941531,-42.62087645054992,21.738679021947235,0.3851260745299902,219.44444447144633,150.00000001845183,736.1111112017243,102.77777779044118,322.2222222618875,425.0000000522996,275.00000003384775,N
105_195,49943,138572.22223927727,138683.33335040207,138730.5555726301,138788.8889059706,139000.0000171077,26.691307567226303,-72.5217696343781,161.820463276809,-76.3420746813338,13.203351560362504,2.4063350163162216,14.638112528444877,-35.728667891195244,17.169672261814117,1.6356245673111325,211.11111113708466,158.3333333528426,708.333333420509,105.55555556854233,316.666666705627,427.77777783042984,269.44444447758724,N
105_196,50198,139294.4444615884,139391.66668382258,139438.88890605062,139494.44446161302,139700.00001719387,30.40350093763792,-68.9821051941554,162.63648457272157,-76.6301646350485,17.686852132566337,-0.512987512688688,16.82046473854259,-39.60191891772651,19.23900268759045,-0.3952579728189672,205.55555558085325,144.44444446222042,694.4444445298868,102.77777779044118,308.33333337129443,405.5555556054751,261.1111111432547,N
105_197,50448,139994.44446167455,140086.1111283525,140133.3333505805,140188.8889061429,140383.3333506113,28.73997067042793,-67.2579853937857,154.99275060014386,-70.68229486805009,17.59174797458628,-0.7582028545997894,16.61236403114997,-39.15218418268332,18.25547519260868,0.821822791694242,194.44444446839043,138.8888889059599,677.7777778612217,102.77777779041207,297.2222222588025,388.88888893675175,250.00000003079185,N
105_198,50692,140666.6666839795,140761.11112843556,140811.11112844173,140863.888906226,141066.66668402872,26.67851502930578,-68.3130681630608,158.77770927240783,-73.89682529643987,15.030211199696694,-1.7581577845550445,16.47349702879955,-36.95571279179678,20.69152258759484,-0.4802945951608581,202.777777802723,144.44444446222042,713.8888889767404,102.77777779044118,305.5555555931642,400.0000000492146,255.55555558699416,N
105_199,50949,141375.00001740002,141477.77779519046,141525.00001741847,141580.55557298087,141800.00001745232,24.27619591231046,-70.02779931292645,157.57826040559715,-71.3485188587657,14.947094892697107,-1.4971759216566176,13.927268688698703,-34.746416297995545,18.171931456725478,-0.5962910479386168,219.44444447144633,150.00000001845183,716.6666667548707,102.77777779041207,322.2222222618584,425.0000000522996,275.00000003384775,N
105_200,51207,142097.22223971112,142194.44446194533,142241.66668417334,142300.00001751387,142516.6666842072,27.94445091354812,-70.21187131461545,156.55357843306882,-70.69561073804968,15.405390955493754,-2.795275682564964,14.723781619929913,-39.72808602759607,18.430279346622363,-0.1330637640341733,216.66666669331607,144.44444446222042,736.1111112017243,105.55555556854233,322.2222222618584,419.4444444960682,275.00000003384775,N
105_201,51472,142830.5555731347,142930.55557314702,142977.77779537506,143033.33335093746,143236.1111287402,26.727871799728693,-66.00042244032042,153.5367582173053,-69.25059120992177,15.868150748514186,-1.5670654875635257,14.08932936521972,-35.35150708647942,16.734006106489016,2.4711068068302064,202.777777802723,147.22222224035067,733.333333423594,102.77777779044118,305.5555555931642,405.5555556054751,258.3333333651244,N
105_202,51736,143561.11112878018,143663.88890657062,143711.11112879866,143766.66668436103,143980.55557327624,25.53846988321504,-68.68027393149934,156.1145431718124,-68.94422809963504,16.209183920380145,-0.9628612708108928,12.903218843057228,-31.17245474051945,15.91092501053572,0.9035224180799056,213.88888891521492,150.00000001848093,736.1111112016952,102.77777779041207,316.666666705627,419.4444444960682,269.44444447758724,N
105_203,52001,144294.44446220377,144400.0000177723,144447.22224000035,144505.55557334088,144713.88890669984,25.689044839428043,-70.49137898553577,158.454117282439,-72.21438388647003,17.440462712728962,-0.6274546006164119,15.76754248824797,-41.25032981775387,20.432046503218093,0.6214468518692653,208.3333333589544,152.7777777965821,711.1111111986393,105.55555556857144,313.88888892752584,419.4444444960682,266.6666666994861,N
105_204,52257,145013.88890673677,145108.33335119285,145158.333351199,145213.8889067614,145427.7777956766,26.964458373519008,-69.4464451212048,157.82113465821303,-70.95291184106726,15.637918776558385,-1.016803144891855,16.914146474840805,-37.21951184149309,18.596563483440654,0.4880743261049967,213.88888891521492,144.44444446222042,708.333333420509,105.55555556854233,319.44444448375725,413.88888893983676,269.44444447761634,N
105_205,52512,145725.0000179354,145819.44446239146,145866.6666846195,145925.00001796,146136.11112909712,27.58966251658881,-68.48797905946249,153.08554184351456,-69.67631134472738,16.35250220945738,-1.1375499123396668,15.45760371287249,-39.456171318827685,18.02134035419084,0.0364044712541175,211.11111113711377,141.66666668409016,713.8888889767695,105.55555556854233,316.6666667056561,411.1111111617065,269.44444447761634,N
105_206,52769,146444.44446246838,146533.33335136823,146580.55557359627,146636.11112915864,146836.11112918326,28.46876625349609,-69.10552798769837,155.15856872341757,-71.62776422241592,16.679831081968864,-2.2894972397512903,15.6593881668092,-36.98072423061129,18.155934363210257,-0.2920331275392724,200.00000002462184,136.11111112788785,697.2222223080171,102.77777779041207,302.7777778150339,391.666666714882,255.55555558699416,N
105_207,53020,147136.1111292202,147230.55557367625,147277.7777959043,147333.3333514667,147536.1111292694,27.275651316478648,-70.41015513942713,161.08959491428627,-73.33061255757369,16.352903426836622,-0.9091443309446188,14.408131030438591,-34.82738115734768,17.18584643189375,-0.4799602991580839,202.777777802723,141.66666668409016,697.2222223080462,102.77777779044118,305.5555555931642,400.0000000492146,258.3333333651244,N
105_208,53271,147833.3333515282,147927.7777959843,147975.00001821233,148033.33335155284,148250.00001824618,27.82281153968691,-70.97299970124402,158.6172606379874,-73.09811995514703,15.274679057007017,-1.041262227412783,16.41720232819875,-40.04379170580202,19.0510326467008,-0.3624627235197346,216.66666669334518,141.66666668411926,738.8888889798254,105.55555556854233,322.2222222618875,416.666666717967,275.00000003384775,N
105_209,53537,148563.88890717368,148666.66668496412,148713.88890719216,148775.0000183108,149005.55557389473,25.736255614664543,-68.97945530585454,151.17052249696317,-66.97738701115254,14.35041296749469,-2.703670846818712,15.368778506427407,-39.10387844585788,17.810794359631018,-0.5965733148214107,230.55555558393826,150.00000001848093,772.2222223172721,108.33333334667259,338.88888893061085,441.666666721052,291.6666667025711,N
105_210,53815,149333.33335171285,149436.11112950326,149486.11112950943,149541.6666850718,149752.77779620892,24.9785124149603,-68.94934519143236,157.23328080605603,-71.94220804119014,16.88466375761147,-1.975698821658285,14.696420523419574,-32.37322495581057,17.11440430738527,-0.4973647333592708,211.11111113711377,152.7777777965821,730.5555556454638,105.55555556854233,316.6666667056561,419.4444444960682,266.6666666994861,N
105_211,54078,150066.6666851364,150169.44446292683,150216.6666851549,150275.0000184954,150486.11112963248,25.872728682373666,-67.51898287160125,151.46630143554705,-69.09048903061574,16.422683731018868,-2.6837092759642527,12.983407517930583,-32.74924568980789,16.314305387871386,0.6469709377989501,211.11111113708466,150.00000001848093,708.333333420509,105.55555556857144,316.6666667056561,419.4444444960682,269.44444447758724,N
105_212,54333,150780.55557411318,150877.77779634736,150925.0000185754,150980.5555741378,151191.6666852749,27.25355889488633,-70.90622395218966,155.86081813426432,-70.356416883088,15.773224592556934,-1.2438284625048222,12.213084987205884,-35.28685675842784,19.33859903076231,0.6921723619581026,211.11111113708466,144.44444446222042,708.333333420509,102.77777779044118,313.88888892752584,411.1111111617065,266.6666666994861,N
105_213,54588,151491.66668531182,151586.11112976787,151633.3333519959,151688.8889075583,151897.22224091727,26.855173314760773,-68.07823702489337,152.86720733705522,-69.59374638573449,15.981482521169974,-2.84640554337226,13.044465068929211,-35.513058096550914,18.22326604136648,-0.3728350002004025,208.3333333589544,141.66666668409016,691.6666667517857,102.77777779044118,311.1111111493956,405.555555605446,263.88888892135583,N
105_214,54837,152191.66668539797,152277.7777965197,152325.0000187477,152380.5555743101,152580.55557433472,28.48580938143947,-68.67087779133618,156.57301491601592,-70.73945450495894,16.055047746122607,-1.4014769254153412,14.41485661908312,-34.473546921979775,15.943938458429864,0.5769047709127513,200.00000002462184,133.3333333497285,705.5555556424079,102.77777779041207,302.7777778150339,388.88888893675175,255.55555558702326,N
105_215,55091,152886.1111299279,152980.55557438394,153030.5555743901,153083.33335217438,153288.88890775523,26.99422578182161,-66.19680755595279,154.63913121540597,-69.81699268712455,16.166276861921958,-2.1467942718185853,15.272624911926172,-33.60377710238316,17.95092968724162,1.5408211942892929,205.55555558085325,144.44444446222042,716.6666667548707,102.77777779044118,308.33333337129443,402.77777782734483,258.3333333651244,N
105_216,55349,153600.00001890463,153700.00001891694,153747.22224114498,153802.77779670738,154013.88890784446,26.157588628943994,-71.2379542311161,161.5592396222089,-73.56346903076313,15.46949804077192,-3.3077472169489432,13.185106655717668,-33.305540524057264,16.84526214459546,0.4578091854134183,211.11111113708466,147.22222224035067,716.6666667548707,102.77777779044118,313.88888892752584,413.88888893983676,266.6666666994861,N
105_217,55607,154316.6666856595,154416.6666856718,154463.88890789985,154522.22224124035,154738.8889079337,25.351006480292597,-70.48575210311887,158.09714724344047,-71.89049589803759,15.17270125494472,-1.4193997513279089,16.01617914148742,-42.07050637327386,19.215465829507515,0.3435795923736291,216.66666669334518,147.22222224035067,738.8888889798254,105.55555556854233,322.2222222618875,422.22222227419843,275.00000003384775,N
105_218,55873,155055.55557463932,155152.77779687353,155202.77779687967,155258.33335244207,155475.0000191354,26.989982009670957,-70.57922543985033,158.3320530021642,-72.08644028105707,15.8980428599125,-1.0989754870868738,17.53315310945278,-36.994201786891786,19.268929951655245,-1.2096108731446202,216.66666669331607,147.22222224035067,741.6666667579557,105.55555556854233,322.2222222618584,419.4444444960682,272.2222222557175,N
105_219,56140,155791.66668584105,155894.44446363146,155944.44446363763,156000.00001920003,156219.44446367148,23.927752878987548,-71.09135902623828,160.1745611939417,-73.27656676957713,15.572592989390552,-1.3213948492706136,13.6769375469634,-31.194951224736545,16.51557374440575,-0.6866606472263272,219.44444447144633,152.7777777965821,758.3333334266499,105.55555556857144,325.00000004001777,427.77777783042984,275.00000003384775,N
105_220,56413,156550.0000192677,156655.55557483627,156702.77779706428,156758.33335262668,156972.2222415419,26.33901686761158,-70.53292526444994,160.55842648574964,-73.55120781122383,15.508761796453332,-1.2756987491260383,13.250288610450252,-39.57068770043202,21.8943550098376,-0.2527723842389442,213.88888891521492,152.7777777965821,705.5555556424079,102.77777779041207,316.666666705627,422.22222227419843,269.44444447761634,N
105_221,56667,157266.66668602257,157361.11113047865,157408.3333527067,157466.6666860472,157672.22224162804,25.390985235246557,-67.73422729172664,154.18809698421376,-68.94464060050504,17.752085812002047,-0.2790386412320985,14.192102577662489,-38.48316923018334,18.61175981280361,-0.2325078993659539,205.55555558085325,141.66666668411926,697.2222223080462,105.55555556854233,311.1111111493956,405.5555556054751,263.88888892135583,N
105_222,56918,157969.44446388684,158055.55557500856,158105.55557501473,158161.1111305771,158355.5555750455,28.646721332479892,-67.7881248348438,152.36729314122996,-67.07994966013976,16.3094842671881,-1.9518933569008436,13.06429632577168,-31.65460827071232,15.926389436517416,-0.5431075803564216,194.44444446839043,136.11111112788785,686.1111111955543,105.55555556854233,300.00000003693276,386.1111111586506,250.00000003076275,N
105_223,57165,158652.7777973043,158744.44446398225,158791.6666862103,158847.22224177266,159202.777797372,32.09066248265409,-72.51055103559904,160.81243731229225,-73.20381931229318,220.8930128778845,-0.5124706797065585,14.541785276217263,-39.2959898042678,19.324287395003072,57.91131420026596,355.5555555993342,138.888888905989,413.88888893980766,102.77777779041207,458.33333338974626,550.0000000676955,411.1111111617065,N
105_224,57314,159061.11113068787,159147.2222418096,159205.5555751501,159252.77779737813,159344.44446405608,21.579562192519276,-96.03600701325465,220.7638267923701,-108.15781984917018,14.086291905447665,-2.433955765296546,-23.514605636848547,70.44255257721989,-12.754142881222382,5.180622739493,91.66666667794925,144.44444446222042,977.7777778981254,105.55555556854233,197.22222224649158,283.3333333682094,138.888888905989,V
105_225,57666,160044.44446414223,160136.11113082018,160183.33335304822,160241.66668638872,160483.33335308515,27.024992492597125,-66.23880598872786,150.05780628789748,-68.71347671072175,18.29751022024736,-0.4300653812280705,9.626131121601915,-26.41824319688916,13.7096419089195,1.3229586947869068,241.66666669643018,138.888888905989,763.8888889829104,105.55555556854233,347.2222222649725,438.88888894292177,300.00000003693276,N
105_226,57941,160794.44446423455,160900.0000198031,160947.22224203113,161005.55557537163,161233.33335317744,25.01119964556777,-72.20120496133148,156.33853354070894,-70.53308192783192,13.78653595525178,-1.4069185919196865,12.14010109466736,-31.803919957003068,16.569854444102553,0.1782493462436871,227.777777805808,152.7777777965821,747.2222223141871,105.55555556854233,333.33333337435033,438.88888894289266,286.1111111463106,N
105_227,58210,161552.77779766123,161644.44446433918,161694.44446434532,161747.2222421296,161961.1111310448,26.834495230042037,-67.98005836917055,159.0645791407228,-72.43303598601918,15.118598796959674,-3.405466938891021,12.940243794495242,-31.01776673925431,17.554919498783814,-0.3879576218314424,213.88888891521492,141.66666668409016,730.5555556454638,102.77777779041207,316.666666705627,408.33333338357625,266.6666666994861,N
105_228,58473,162275.00001997233,162375.00001998464,162425.00001999078,162480.55557555318,162694.4444644684,26.186721931256795,-70.00919906651875,156.44952474142764,-71.87244512597098,14.496986695039752,-1.6026649435481788,13.549391048141516,-32.245395808502145,17.158391640819133,0.232897340741854,213.88888891521492,150.00000001845183,713.8888889767695,105.55555556854233,319.44444448375725,419.4444444960682,269.44444447761634,N
105_229,58730,162994.44446450533,163091.6666867395,163138.88890896755,163194.44446452992,163400.00002011078,28.394425798663757,-69.14401664576421,158.63687709562723,-72.7937560248435,16.269794380446307,-1.3852713543739228,11.493101477791914,-33.58925508376165,17.29098674529919,-0.0358553369621068,205.55555558085325,144.44444446222042,708.333333420509,102.77777779041207,308.3333333712653,405.555555605446,261.11111114322557,N
105_230,58985,163705.55557570394,163800.00002016002,163847.22224238806,163902.77779795043,164113.88890908755,28.151622418866072,-68.72106466609885,155.64925838511692,-71.94845163738945,16.628074969873442,-1.7961765696099707,10.746562823292944,-30.150315516853123,15.81579084864225,-0.746265936948852,211.11111113711377,141.66666668411926,705.5555556423787,102.77777779041207,313.88888892752584,408.33333338360535,266.6666666994861,N
105_231,59239,164413.88890912445,164505.5555758024,164552.77779803044,164608.33335359284,164811.11113139556,28.83482682226395,-69.79408170253731,159.99960631159254,-73.39233783087491,16.22277936550486,-1.7162567673127074,11.134327535068367,-29.252361149808717,15.152814610115191,-0.4608001992901611,202.777777802723,138.888888905989,705.5555556424079,102.77777779044118,305.5555555931642,397.2222222711134,258.3333333651244,N
105_232,59493,165116.66668698873,165211.1111314448,165258.33335367285,165313.88890923522,165522.2222425942,27.88821240124803,-68.6873709613492,156.26601427075104,-71.71162468139532,16.593206653093727,-1.5769925803615537,12.540051794000815,-31.6009173890876,16.872505346328257,-0.8118109517406772,208.3333333589835,141.66666668411926,691.6666667517857,102.77777779041207,311.1111111493956,405.5555556054751,263.88888892135583,N
105_233,59742,165805.5555759624,165902.7777981966,165950.00002042463,166008.33335376513,166225.00002045848,27.11579980576335,-68.52046767431175,153.63784197247614,-70.03767205365406,15.14383365032117,-1.1893068204140054,11.835695683995594,-34.10690591602712,16.220201135378055,-0.4370018937099155,216.66666669334518,144.44444446222042,725.0000000892323,105.55555556854233,322.2222222618875,419.4444444960682,275.00000003384775,N
105_234,60003,166527.7777982735,166625.00002050772,166675.00002051386,166733.33335385437,166955.55557610394,26.561442568911563,-68.34500584147061,152.55435907350392,-67.80738548130576,14.50848119336035,-2.679106580551304,13.532644079197777,-31.405951093287413,15.965903600803042,-0.8644823185222907,222.2222222495766,147.22222224035067,741.6666667579557,108.33333334664349,330.5555555962201,427.77777783042984,280.55555559007917,N
105_235,60270,167272.2222428096,167366.66668726565,167416.66668727182,167472.2222428342,167691.66668730567,26.263694768049614,-67.77247445729961,156.11206381823254,-70.0162153487452,15.599503051422529,-1.2706834774467235,13.757667654793549,-29.874251915025987,15.57965862343353,0.0257810646161463,219.44444447147544,144.44444446222042,758.3333334266499,105.55555556854233,325.00000004001777,419.4444444960682,275.00000003384775,N
105_236,60543,168022.2222429019,168127.77779847046,168175.00002069847,168230.55557626087,168447.22224295422,23.85275542118285,-67.72266419457532,152.4404961326251,-69.45341618583882,16.601801734635117,-1.5739529682151747,12.595603609865444,-33.021989645798485,16.665956494464623,0.1607120510858539,216.66666669334518,152.7777777965821,736.1111112017243,102.77777779041207,319.44444448375725,425.0000000523287,272.2222222557466,N
105_237,60808,168763.88890965984,168863.88890967215,168911.1111319002,168969.4444652407,169180.5555763778,26.155900072669223,-70.96364621976763,156.48429906977066,-71.04898214047272,16.42890229618102,-2.2304339370903885,13.210295269902408,-35.787347178976844,17.569539253284304,-1.0959709248423577,211.11111113711377,147.22222224035067,705.5555556423787,105.55555556854233,316.6666667056561,416.666666717967,269.44444447761634,N
105_238,61062,169472.22224308035,169569.44446531456,169616.66668754257,169672.22224310497,169875.0000209077,27.625228656420685,-69.31760569871554,157.33929115673084,-71.52804912291116,16.030794885905053,-2.0125630213557733,11.240532170121394,-31.96457584775593,17.13908195398032,0.0710107986246796,202.777777802723,144.44444446222042,691.6666667518148,102.77777779041207,305.55555559313507,402.77777782734483,258.3333333651244,N
105_239,61311,170169.4444653884,170258.33335428822,170308.3333542944,170361.11113207866,170558.33335432515,28.056311854857277,-67.57913642413102,155.58571448353933,-70.85996098154872,17.056332405389558,-1.8979305336912455,12.03658589996128,-29.295820088192254,16.601534415450228,-1.1156420802740237,197.22222224649158,138.888888905989,688.8888889736554,102.77777779044118,300.00000003693276,388.88888893675175,250.00000003076275,N
105_240,61559,170855.55557658395,170947.2222432619,170997.22224326804,171050.0000210523,171261.11113218943,27.049093380416984,-66.89683599015063,154.97103099849903,-70.7530576916019,16.411954638194292,-1.6270940805594551,12.601440781562175,-30.463264065014616,16.76481423958158,-0.2596060792333935,211.11111113711377,141.66666668409016,722.2222223111312,102.77777779041207,313.88888892752584,405.5555556054751,263.88888892138493,N
105_241,61819,171569.4444655607,171669.444465573,171719.44446557917,171775.00002114155,171988.88891005676,25.91618088927133,-69.71111858451336,155.92470435198106,-70.80975208114128,15.911040697246886,-1.694185006107379,15.64481936355857,-34.90727054820074,18.565185857720326,-0.1638094580126657,213.88888891521492,150.00000001848093,727.7777778673335,105.55555556854233,319.44444448375725,419.4444444960682,269.44444447758724,N
105_242,62081,172300.0000212062,172400.00002121847,172447.2222434465,172502.7777990089,172725.0000212585,26.366409027882074,-69.07471730525931,156.7148182517932,-70.7508703641575,15.866916560629232,-2.718183838779168,11.868957485999994,-35.24048113357574,18.703962417851788,-0.1893998492558747,222.2222222495766,147.22222224032157,744.4444445360859,102.77777779044118,325.00000004001777,425.0000000522996,277.777777811978,N
105_243,62349,173047.22224352037,173144.44446575455,173191.6666879826,173250.0000213231,173452.77779912582,25.7955847314095,-69.0646129006308,153.4798826259993,-69.82228886960739,14.98195163416473,-2.7421653163776383,11.88265941373994,-30.395598190398683,13.949241568672427,-0.3771400171029804,202.777777802723,144.44444446222042,722.2222223111021,105.55555556854233,308.3333333712653,405.555555605446,261.11111114322557,N
105_244,62609,173769.44446583148,173863.88891028755,173913.8889102937,173969.4444658561,174186.1111325494,25.75015146698669,-66.4399991180248,154.48545099635834,-67.64949538589572,14.456264840962454,-2.067610736488401,11.761360126745029,-30.031829903094863,14.735345655119843,-0.4279580178078296,216.66666669331607,144.44444446222042,741.6666667579557,105.55555556854233,322.2222222618584,416.6666667179379,272.2222222557175,N
105_245,62876,174500.00002147694,174608.3333548236,174655.55557705165,174711.11113261402,174919.444465973,23.87277169331773,-66.31518565157224,153.52022613800386,-71.1862193810497,16.492105381689182,-0.2425255051614765,10.611198659855246,-33.892071127440914,19.55568636213805,0.1106956765906466,208.3333333589835,155.55555557471234,702.7777778642776,102.77777779041207,311.1111111493956,419.4444444960682,263.88888892135583,N
105_246,63129,175213.8889104537,175311.1111326879,175358.33335491593,175416.66668825643,175619.44446605915,25.38355943011876,-68.99001877151373,151.7483996000306,-65.5929675015022,19.490358464414197,-0.8987930191537148,13.27674031631054,-35.87347402178791,22.75990380608541,-3.3110306697473475,202.777777802723,144.44444446222042,702.7777778642485,105.55555556854233,308.3333333712653,405.555555605446,261.11111114322557,N
105_247,63382,175919.4444660961,176013.88891055217,176061.11113278018,176119.4444661207,176325.00002170156,28.29620048896865,-70.90292998699263,158.54742468226672,-74.89237813104643,15.693055407616727,-1.3599639456715011,11.145779849834875,-33.180526776800576,17.299961540549095,-0.4777640174962949,205.55555558085325,141.66666668409016,702.7777778642485,105.55555556854233,311.1111111493956,405.5555556054751,263.88888892138493,N
105_248,63635,176625.0000217385,176716.66668841644,176763.88891064443,176816.66668842873,177013.88891067525,27.52351219536065,-63.17402635239937,148.27291747848824,-67.20009118028074,13.231556537773928,8.843889975715255,4.454557009850252,-19.7763620783836,13.531693710468105,-0.2515420894951643,197.2222222465207,138.8888889059308,697.2222223080753,100.00000001228182,297.2222222588025,388.88888893675175,250.00000003082096,N
105_249,63886,177319.44446626838,177416.6666885026,177461.1111329525,177516.6666885149,177722.22224409576,27.588575436268943,-63.1047517977395,140.27026480662136,-63.27495168217048,16.235961969452823,-0.976674791165344,9.100462137559832,-23.73342046413807,13.261198448508006,-1.4949238694028713,205.55555558085325,141.66666668411926,691.6666667517857,100.00000001231092,305.5555555931642,402.77777782737394,261.1111111432547,N
105_250,64135,178008.33335524207,178105.55557747625,178152.7777997043,178208.3333552667,178422.2222441819,27.666862268134725,-66.2556270964116,151.79054381440162,-69.03507666736922,13.7627881832583,-0.6838740660014778,11.216863555214536,-35.606586910940734,19.87338893342701,-1.837917574682819,213.88888891521492,144.44444446222042,736.1111112017243,102.77777779044118,316.6666667056561,413.88888893983676,269.44444447761634,N
105_251,64400,178733.3333553313,178841.66668867797,178888.888910906,178944.44446646838,179177.77779983045,25.729457860745413,-69.85724383056058,155.63674313028486,-69.86314713392564,14.037593616332094,0.5161182156476279,12.880732153293623,-37.570015543403386,21.382431547007467,-1.5300779951940016,233.33333336206852,155.55555557471234,761.1111112047802,102.77777779041207,336.1111111524806,444.4444444991532,288.88888892444083,N
105_252,64674,179500.00002209234,179602.77779988275,179650.0000221108,179705.5555776732,179925.00002214464,30.24147916138704,-63.90465808468409,151.13524582757734,-67.7562766522272,14.387586213165646,1.2147944674054394,14.650002302465886,-38.61601835387875,20.819529991985792,-1.2667571995178362,219.44444447144633,150.00000001845183,730.5555556454347,102.77777779044118,322.2222222618875,425.0000000522996,275.00000003384775,N
105_253,64937,180230.5555777378,180336.11113330637,180380.55557775623,180438.8889110968,180650.00002223387,31.94483692823642,-68.80257094460514,151.9074871511499,-66.84898346167054,13.889435118714038,1.8425541457693464,3.002659079215834,-36.88518636426985,23.876509403294005,-3.894963841293137,211.11111113708466,150.00000001842272,694.444444529945,102.77777779041207,313.88888892749674,419.4444444960682,269.44444447764545,N
105_254,65187,180936.11113338015,181027.77780005813,181075.00002228617,181133.33335562667,181347.2222445419,31.494581974690085,-71.56893790316184,155.15527181098122,-70.57545331452395,14.589470932606469,2.402453999768218,13.088754511238472,-37.97020205248689,19.88628315316664,-1.5715911766249813,213.88888891521492,138.8888889060181,694.4444445299159,105.55555556854233,319.44444448375725,411.1111111617356,272.2222222557175,N
105_255,65437,181630.5555779101,181722.22224458805,181769.4444668161,181825.0000223785,182030.5555779593,31.408940126921244,-68.12704175633061,152.68789377557982,-68.13612029376169,13.73485422875317,0.8604035578992622,11.091143334980986,-33.08815140352064,17.64663752420786,0.2899353772746397,205.55555558082415,138.888888905989,691.6666667517857,102.77777779044118,308.3333333712653,400.0000000492146,261.11111114322557,N
105_256,65686,182325.00002244,182413.88891133983,182461.11113356787,182516.66668913027,182713.8889113768,30.960539033234426,-68.99811513718183,156.06677225124577,-69.69116111176965,14.692549714224576,1.6718053752120925,11.894529469237906,-32.077533636303684,16.515174264005225,-4.0318165194688245,197.2222222465207,136.11111112785875,686.1111111955543,102.77777779044118,300.00000003696186,388.88888893678086,252.7777778089221,N
105_257,65933,183005.5555780793,183100.00002253545,183147.22224476343,183205.555578104,183408.33335590668,28.41925325999599,-66.27980016996977,148.98640034435186,-69.80041022440396,12.74890261736912,1.539518208836174,9.492748339259313,-19.87766138392437,11.485625795604944,-12.39867334807714,202.7777778026939,141.66666668411926,711.1111111986393,105.55555556854233,308.3333333712362,402.77777782737394,261.1111111432547,N
105_258,66189,183711.1111337217,183811.11113373403,183858.33335596207,183913.88891152447,184133.3333559959,30.57579703064023,-72.00304138490914,154.82626569892554,-69.15537449444662,11.403396482615143,0.2167240306028583,12.08415671509567,-24.65042577405888,8.999869357769892,2.129973109820656,219.44444447144633,147.22222224037978,708.3333334204799,102.77777779044118,322.2222222618875,422.22222227422753,275.00000003384775,N
105_259,66444,184422.22224492035,184519.44446715456,184566.66668938255,184625.0000227231,184855.55557830704,25.764932153561663,-68.40132932247278,148.38149274562224,-67.39115184754908,16.781232263816186,5.531468710824165,5.3555080441564575,-31.767804244244484,21.229660452807146,-2.256254931762402,230.55555558393826,144.4444444621913,727.7777778674208,105.55555556854233,336.1111111524806,433.33333338669036,288.88888892449904,N
105_260,66706,185152.77780056585,185244.44446724377,185294.44446724997,185350.00002281237,185741.6666895272,32.56021023435516,-73.18325879840683,158.61961524363608,-71.92450028683461,224.3946975917329,2.909286835100035,17.968531338982217,-35.45972241849972,22.83869326499457,67.67136088539874,391.6666667148238,141.66666668411926,447.2222222772252,105.55555556860054,497.22222228342434,588.8888889613445,447.2222222772252,N
105_261,66867,185569.44446728376,185686.1111339648,185741.6666895272,185788.88891175523,185869.44446732072,14.936597147909405,-97.87505014969808,224.3946975917329,-115.94303937915174,14.443477018830905,-6.894466119495396,-32.21974082835932,67.67136088539874,-10.639046765639394,2.9233694564151937,80.55555556548643,172.22222224343568,1002.7777779012104,102.77777779044118,183.3333333559276,300.00000003696186,127.77777779352618,V
105_262,67228,186605.5555785224,186697.2222452004,186744.4444674284,186802.7778007689,187038.88891190907,27.25561013443017,-73.56383808768223,156.01205190616892,-70.8086646404951,18.29905037233566,-0.6128135541632656,11.634585709843508,-31.47800972397256,13.558715526774131,1.0351462923531016,236.11111114016967,138.888888905989,719.4444445329718,105.55555556851323,341.6666667086829,433.33333338666125,294.44444448067225,N
105_263,67487,187322.22224527728,187416.66668973336,187463.88891196137,187516.66668974567,187722.22224532653,27.171565069187142,-66.6955455646429,152.81789161388784,-71.9759821584923,18.415937035611016,4.153354273802903,8.202581390219306,-16.977265344816228,10.102253687987467,-1.638064538843032,205.55555558085325,141.66666668409016,691.6666667518148,100.00000001231092,305.5555555931642,400.0000000492437,258.3333333651535,N
105_264,67736,188013.88891202907,188105.55557870705,188155.5555787132,188208.33335649743,188405.55557874395,36.02668811448588,-67.12613193274211,153.15208817049563,-65.4564391203614,21.315014549240583,0.4829328118154788,13.744868316713305,-34.81394636313272,22.19260327838725,2.164539732821908,197.2222222465207,141.66666668411926,672.2222223049321,102.77777779038297,300.00000003690366,391.666666714882,250.00000003076275,N
105_265,67978,188683.33335655596,188780.5555787901,188827.77780101812,188883.3333565805,189080.55557882704,28.795001185573152,-72.20896428373423,155.26048134143883,-68.55322221229447,13.648542848049994,-0.9039109193380986,13.482208268407636,-37.603380608164166,19.301567137853045,-1.343840077594114,197.2222222465498,144.4444444621622,686.1111111955834,102.77777779038297,300.00000003693276,397.2222222710843,252.7777778089221,N
105_266,68225,189369.44446775148,189466.6666899857,189513.8889122137,189572.2222455542,189783.3333566913,27.283133166826357,-72.07806751482995,158.73403215616008,-73.84480086203801,18.07954028420251,0.2917659056050788,11.918466101713664,-29.583494917062943,13.929323286807309,-0.2998857180339326,211.11111113708466,144.44444446222042,694.4444445298868,105.55555556851323,316.6666667055979,413.88888893980766,269.44444447758724,N
105_267,68475,190063.8889122814,190161.1111345156,190208.3333567436,190263.888912306,190488.8889123337,34.65148374938144,-71.21830969834025,163.157171331792,-76.88956285643043,17.9619291467527,2.2494800404646647,11.67408506151776,-36.418464750715,22.635859619097705,-0.6077517015916354,225.00000002770685,144.4444444621913,736.1111112016952,102.77777779038297,327.7777778180898,425.0000000522996,280.55555559010827,N
105_268,68740,190794.4444679269,190897.22224571728,190944.4444679453,191002.77780128585,191227.77780131352,24.48760303022078,-66.78573186942351,161.75286001728998,-75.37540696987224,14.36821812517116,-1.237394132041154,15.307546048002704,-39.76821086529504,19.02753742345166,0.4006425134688092,225.00000002767774,150.00000001839362,747.2222223142162,105.55555556857144,330.5555555962492,433.33333338663215,283.3333333682385,N
105_269,69009,191544.44446801915,191644.44446803143,191691.6666902595,191750.00002360003,191961.11113473712,27.738622857994567,-74.17841507592374,164.73927396135215,-74.03504636894459,15.576260647598945,-1.4783796305477488,13.12037837685948,-36.89306142270783,17.489647124535843,-1.1691825041314183,211.11111113708466,147.22222224035067,722.2222223111312,105.55555556860054,316.6666667056852,416.666666717967,269.44444447761634,N
105_270,69269,192266.66669033028,192363.8889125645,192413.88891257063,192472.22224591117,192683.33335704825,26.491094187669503,-68.83111387939445,151.70388889577112,-70.1127686670243,16.697343400781453,-0.119738765179177,13.991692856154804,-32.43403690993154,15.942836182411549,1.3290266534397488,211.11111113708466,147.22222224035067,702.7777778642485,108.33333334667259,319.44444448375725,416.666666717967,269.44444447761634,N
105_271,69522,192980.55557930705,193072.22224598497,193116.66669043488,193175.0000237754,193380.55557935627,28.67408458724327,-75.61768632679858,154.3026032948813,-69.74903723971681,14.979502614308176,-1.603696337346796,11.344406346084176,-36.63402941474229,17.300668181382548,1.3334253362049315,205.55555558085325,136.11111112782964,694.4444445299159,102.77777779044118,308.33333337129443,400.0000000492146,263.88888892138493,N
105_272,69772,193669.4444682807,193761.11113495863,193811.1111349648,193866.6666905272,194069.44446832992,26.504774367360437,-72.67902633393719,163.78756494220107,-74.15451000633385,15.519570122006156,-2.5824078812522595,11.769867817221002,-27.452611330787256,15.885959514447393,0.8595812656166323,202.777777802723,141.66666668409016,708.333333420509,105.55555556857144,308.33333337129443,400.0000000492146,258.3333333651244,N
105_273,70027,194377.7778017012,194472.2222461573,194519.4444683853,194575.0000239477,194777.7778017505,27.35046392721149,-67.22113009252654,152.84122675293375,-68.90704832771799,15.999739179607683,-0.927970173623896,11.158959191664982,-27.65268286249228,13.64031851295026,0.0835491068698967,202.7777778027812,141.66666668411926,683.3333334174822,102.77777779041207,305.5555555931933,400.0000000493019,258.3333333651826,N
105_274,70273,195063.8889128968,195155.55557957472,195202.7778018028,195258.3333573652,195469.44446850225,27.922821506852635,-69.6284194783973,156.1009075927924,-70.13921738551548,14.805540939270308,-2.192443402774182,12.556437128971092,-32.01970078255314,16.068436172300093,-0.4150245180998215,211.11111113705556,138.888888905989,694.4444445298868,102.77777779047028,313.88888892752584,405.555555605446,266.666666699457,N
105_275,70523,195758.3333574267,195850.00002410464,195897.22224633268,195952.77780189508,196163.88891303216,30.85733702871182,-76.27739893726488,169.93975851258912,-78.24244541548565,15.774261893427798,-0.5559002588449181,15.802632704542496,-38.65898271148797,19.078234453825143,1.2759532923739858,211.11111113708466,138.888888905989,713.8888889767695,102.77777779044118,313.88888892752584,405.5555556054751,266.6666666994861,N
105_276,70780,196469.44446862533,196563.88891308135,196611.11113530945,196666.66669087185,196883.3333575652,28.0199412983414,-70.96621332321578,161.12688975437146,-71.98394892877724,15.670075211696677,-0.963096100806884,14.56873826589897,-35.15404904095312,16.686845392593384,-0.1406047215974392,216.66666669334518,141.66666668411926,738.8888889797963,102.77777779049939,319.44444448384456,413.88888893986586,272.2222222557466,N
105_277,71046,197202.7778020489,197302.77780206123,197350.00002428924,197408.33335762977,197616.66669098876,25.637500087699717,-70.71542088267628,156.36340067531984,-73.12651121314892,15.99985959918108,-0.9570211447802162,15.359734124049554,-38.87744692574169,17.500123393636397,0.3396745576133313,208.3333333589835,147.22222224035067,736.1111112017243,105.55555556854233,313.88888892752584,413.88888893986586,266.6666666995152,N
105_278,71311,197930.55557991625,198036.1111354848,198086.11113549097,198141.66669105337,198358.33335774668,24.27473812057836,-75.46235135310131,166.71682419025572,-76.59020040437652,16.91364387024805,-1.757227437211519,15.893264618370509,-34.27064676625219,19.051482966585088,0.9710300916774364,216.66666669331607,155.55555557471234,744.4444445360859,105.55555556857144,322.2222222618875,427.77777783042984,272.2222222557175,N
105_279,71579,198677.77780223044,198780.55558002088,198830.55558002705,198886.11113558945,199105.55558006087,24.28911875257145,-72.97032189715746,161.91220818079617,-73.6760112763671,15.685627955326598,-1.235976988965065,14.634332448841011,-33.314695492967566,16.099550620399327,1.4469957569605547,219.44444447141723,152.7777777966112,700.0000000861473,105.55555556857144,325.00000003998866,427.77777783042984,275.00000003381865,N
105_280,71831,199391.6666912072,199483.3333578852,199530.5555801132,199586.1111356756,199786.1111357002,27.841880523686463,-69.94891295431175,163.5292616976924,-73.21030011073792,15.864630318070375,-0.0994465194450872,17.268082689768686,-41.53737376118104,19.075898723163466,-0.6755194461358462,200.00000002459274,138.888888905989,688.8888889736263,102.77777779041207,302.7777778150048,394.44444449298317,255.55555558699416,N
105_281,72079,200080.55558018087,200172.2222468588,200219.44446908683,200275.0000246493,200469.4444691176,27.57310158914717,-71.52510420029881,164.28699922601842,-76.35260244660509,18.226663649236063,-0.0978662624416856,14.2804867082004,-35.99402153111205,17.260503126476227,0.4074974908191074,194.44444446830312,138.8888889059599,686.1111111955834,102.77777779049939,297.2222222588025,388.88888893672265,250.00000003076275,N
